-0.14537
-0.14421
-0.14305
-0.14943
-0.15578
-0.14942
-0.1488
-0.15403
-0.15171
-0.15171
-0.16675
-0.16502
-0.15573
-0.14938
-0.14702
-0.14759
-0.14758
-0.14585
-0.14411
-0.14295
-0.14583
-0.14933
-0.14582
-0.14293
-0.14696
-0.14407
-0.14579
-0.15276
-0.15857
-0.1626
-0.18
-0.17653
-0.1684
-0.17013
-0.17416
-0.17069
-0.16083
-0.15616
-0.14573
-0.13125
-0.11961
-0.10801
-0.097574
-0.094638
-0.095831
-0.082461
-0.062743
-0.044756
-0.019221
0.0063141
0.021415
0.061424
0.1084
0.16004
0.21866
0.28189
0.34858
0.41238
0.47388
0.53711
0.5963
0.64967
0.70828
0.76166
0.81618
0.891
0.9664
1.0302
1.0766
1.101
1.0946
1.0807
1.0459
0.96937
0.83365
0.6886
0.57317
0.47692
0.37947
0.29419
0.21938
0.15324
0.093525
0.034348
-0.022476
-0.073529
-0.12631
-0.17737
-0.21909
-0.25798
-0.29509
-0.30321
-0.30551
-0.30724
-0.30435
-0.29506
-0.27881
-0.25967
-0.24053
-0.22893
-0.22138
-0.2144
-0.208
-0.20511
-0.20511
-0.20221
-0.19985
-0.19523
-0.18652
-0.18536
-0.19171
-0.17723
-0.154
-0.13717
-0.13019
-0.12211
-0.1134
-0.10469
-0.1006
-0.097708
-0.097125
-0.10116
-0.10115
-0.10172
-0.1058
-0.1058
-0.10286
-0.10343
-0.10578
-0.11212
-0.12606
-0.11562
-0.10167
-0.096473
-0.096467
-0.098193
-0.096455
-0.088325
-0.08308
-0.082497
-0.087153
-0.08657
-0.084788
-0.087713
-0.090593
-0.089433
-0.084765
-0.082451
-0.078982
-0.082439
-0.09522
-0.083582
-0.068525
-0.065589
-0.069091
-0.072548
-0.068502
-0.060949
-0.058013
-0.060937
-0.062663
-0.059771
-0.057412
-0.057984
-0.059754
-0.059748
-0.061474
-0.056806
-0.056223
-0.062611
-0.076502
-0.067217
-0.060285
-0.052732
-0.046332
-0.046327
-0.044012
-0.042852
-0.041692
-0.038756
-0.035864
-0.034704
-0.031191
-0.034693
-0.042235
-0.042229
-0.038138
-0.035824
-0.035818
-0.042206
-0.053211
-0.036955
-0.02363
-0.014345
-0.012563
-0.013712
-0.011397
-0.0067741
-0.003838
-0.0038323
-0.0084883
-0.0079054
-0.0020834
-0.003232
-0.0090425
-0.006728
-0.0049463
-0.0037862
-0.0020489
-0.0072821
-0.016556
-0.0043403
0.0055219
0.013653
0.017121
0.020013
0.022949
0.025841
0.029887
0.034554
0.040376
0.042114
0.042119
0.039817
0.038624
0.040405
0.040411
0.046189
0.048503
0.039851
0.028802
0.046789
0.064776
0.069444
0.067718
0.067723
0.07177
0.078746
0.086299
0.090923
0.094436
0.097905
0.10315
0.10604
0.10489
0.10259
0.1049
0.11419
0.11997
0.11535
0.10608
0.11941
0.13047
0.13918
0.14731
0.15366
0.1566
0.16411
0.17517
0.18094
0.1798
0.18273
0.18909
0.19025
0.1891
0.19665
0.20478
0.21003
0.21638
0.21523
0.20711
0.21813
0.23092
0.2379
0.24252
0.24777
0.25239
0.25879
0.27038
0.27505
0.27333
0.27564
0.2768
0.27738
0.27623
0.27739
0.28149
0.28726
0.28727
0.28554
0.28209
0.2931
0.30008
0.30412
0.31052
0.31342
0.31053
0.31054
0.31055
0.31055
0.31114
0.31056
0.30591
0.30187
0.30303
0.30304
0.29377
0.28334
0.27868
0.26768
0.25436
0.2561
0.24971
0.24626
0.24391
0.23637
0.22363
0.21609
0.21378
0.21033
0.19928
0.19
0.18015
0.16449
0.14944
0.14132
0.13667
0.12624
0.11408
0.10072
0.080436
0.076402
0.076407
0.07406
0.068871
0.064792
0.056096
0.045668
0.038126
0.034092
0.027704
0.024824
0.019013
0.0039237
-0.0053498
-0.0099615
-0.01404
-0.019806
-0.027348
-0.041861
-0.057483
-0.052283
-0.045307
-0.044147
-0.045872
-0.049951
-0.050523
-0.050517
-0.054551
-0.059785
-0.065551
-0.067898
-0.069047
-0.07135
-0.078314
-0.083503
-0.085851
-0.08176
-0.081754
-0.092759
-0.099724
-0.089862
-0.08404
-0.084034
-0.084029
-0.082868
-0.081131
-0.081703
-0.084627
-0.082845
-0.08284
-0.083411
-0.083405
-0.088639
-0.091519
-0.091513
-0.089776
-0.093233
-0.097312
-0.10601
-0.10831
-0.09614
-0.091473
-0.09089
-0.092038
-0.091455
-0.093181
-0.089135
-0.087398
-0.089124
-0.090272
-0.087958
-0.089106
-0.096071
-0.099528
-0.096059
-0.093123
-0.089655
-0.086186
-0.093728
-0.098917
-0.089632
-0.08381
-0.082072
-0.080912
-0.082638
-0.083787
-0.080318
-0.076849
-0.078575
-0.0803
-0.079717
-0.08202
-0.084368
-0.084939
-0.085511
-0.085505
-0.084345
-0.081986
-0.091837
-0.095915
-0.090093
-0.086625
-0.08138
-0.076179
-0.073821
-0.076168
-0.077894
-0.077311
-0.073798
-0.07206
-0.072054
-0.072626
-0.079591
-0.080162
-0.078425
-0.076687
-0.076105
-0.079562
-0.091144
-0.090561
-0.078967
-0.072568
-0.069677
-0.069671
-0.068511
-0.069659
-0.069076
-0.068493
-0.06791
-0.067905
-0.068476
-0.06847
-0.074814
-0.075429
-0.072493
-0.07191
-0.069596
-0.072476
-0.089297
-0.092177
-0.081161
-0.074185
-0.068984
-0.067824
-0.068973
-0.073007
-0.076509
-0.072996
-0.070681
-0.07183
-0.071824
-0.072395
-0.073544
-0.072961
-0.075308
-0.077034
-0.078183
-0.078177
-0.091491
-0.096147
-0.086862
-0.077577
-0.074064
-0.077565
-0.082754
-0.081594
-0.075816
-0.074035
-0.076959
-0.080994
-0.081565
-0.082714
-0.085061
-0.084478
-0.086781
-0.089661
-0.087924
-0.086187
-0.097769
-0.099495
-0.090787
-0.088472
-0.092507
-0.094277
-0.091341
-0.086141
-0.083204
-0.081467
-0.080884
-0.086118
-0.087843
-0.090146
-0.095957
-0.097105
-0.095368
-0.0907
-0.091849
-0.097082
-0.11217
-0.11101
-0.10173
-0.096482
-0.093013
-0.091231
-0.093002
-0.096459
-0.097608
-0.09587
-0.09178
-0.092351
-0.092345
-0.09234
-0.096996
-0.098144
-0.097561
-0.096401
-0.094087
-0.094658
-0.10913
-0.1097
-0.099836
-0.095212
-0.092276
-0.091116
-0.094041
-0.096344
-0.096338
-0.096909
-0.095749
-0.094012
-0.096315
-0.098041
-0.10092
-0.099761
-0.099178
-0.1021
-0.10556
-0.10902
-0.12295
-0.12064
-0.109
-0.10322
-0.10148
-0.10321
-0.10263
-0.10085
-0.10084
-0.099103
-0.097943
-0.098514
-0.0962
-0.093308
-0.096765
-0.1008
-0.10315
-0.10314
-0.10833
-0.11414
-0.12745
-0.12341
-0.11008
-0.10253
-0.10252
-0.099011
-0.09088
-0.086834
-0.083365
-0.081583
-0.079846
-0.079263
-0.073441
-0.068818
-0.069967
-0.064722
-0.05779
-0.051968
-0.051385
-0.053688
-0.062384
-0.057761
-0.041505
-0.028713
-0.022358
-0.021775
-0.029273
-0.032775
-0.03046
-0.029877
-0.02925
-0.026358
-0.02693
-0.031586
-0.03855
-0.042008
-0.041425
-0.03911
-0.037329
-0.035591
-0.041402
-0.029808
-0.013552
0.002126
0.02069
0.032861
0.038683
0.035226
0.0335
0.039278
0.045677
0.043374
0.04338
0.042231
0.031759
0.02657
0.027153
0.025427
0.019617
0.011498
-0.0023934
0.002807
0.013246
0.022531
0.028931
0.036484
0.042306
0.047506
0.051597
0.052757
0.050987
0.049838
0.050998
0.050427
0.038845
0.027262
0.016835
0.0028992
-0.0086831
-0.012185
-0.02723
-0.023761
-0.019671
-0.021441
-0.019082
-0.01619
-0.020225
-0.027767
-0.032423
-0.037612
-0.046885
-0.055582
-0.057352
-0.063118
-0.072391
-0.07647
-0.080505
-0.082852
-0.09035
-0.10082
-0.1188
-0.11759
-0.11239
-0.11123
-0.11296
-0.11353
-0.1141
-0.1141
-0.11294
-0.11293
-0.11581
-0.1158
-0.11234
-0.11406
-0.12045
-0.12102
-0.12332
-0.1262
-0.12913
-0.13316
-0.1471
-0.14128
-0.13545
-0.13314
-0.13313
-0.1337
-0.13601
-0.13662
-0.13542
-0.13484
-0.13598
-0.13718
-0.13775
-0.1389
-0.14005
-0.14586
-0.15335
-0.15455
-0.15512
-0.15742
-0.17016
-0.15972
-0.15043
-0.14523
-0.13941
-0.14171
-0.14522
-0.14401
-0.14054
-0.14285
-0.14808
-0.14807
-0.14398
-0.14455
-0.14863
-0.14805
-0.14804
-0.14746
-0.14861
-0.14976
-0.1625
-0.15845
-0.1532
-0.14512
-0.14276
-0.14626
-0.14102
-0.13462
-0.13346
-0.13696
-0.14157
-0.14272
-0.14214
-0.14386
-0.14794
-0.14967
-0.15081
-0.15254
-0.1572
-0.16416
-0.17401
-0.16473
-0.15136
-0.13279
-0.12005
-0.11422
-0.10725
-0.09623
-0.084636
-0.074197
-0.060827
-0.039954
-0.01846
0.0024133
0.023286
0.050553
0.079595
0.11499
0.15846
0.19851
0.23044
0.29074
0.35921
0.42941
0.49321
0.55529
0.6214
0.68756
0.75483
0.81171
0.87143
0.9399
0.99616
1.0374
1.0577
1.0646
1.0571
1.0275
0.96893
0.85062
0.67543
0.54321
0.4475
0.35409
0.26827
0.19751
0.12732
0.055976
-0.0060871
-0.05714
-0.11108
-0.16559
-0.21545
-0.2613
-0.29433
-0.31
-0.31696
-0.31172
-0.30301
-0.29896
-0.2943
-0.26588
-0.24269
-0.22586
-0.216
-0.20902
-0.19974
-0.19916
-0.19857
-0.18867
-0.17534
-0.16082
-0.15269
-0.15037
-0.14517
-0.1405
-0.13526
-0.12193
-0.11092
-0.11149
-0.12192
-0.11148
-0.10277
-0.095215
-0.093478
-0.095204
-0.094043
-0.088222
-0.083021
-0.081861
-0.084741
-0.08589
-0.087038
-0.088764
-0.087027
-0.08933
-0.089901
-0.091671
-0.093397
-0.096854
-0.10848
-0.098574
-0.091065
-0.084089
-0.081153
-0.079993
-0.076524
-0.07421
-0.071273
-0.070691
-0.073615
-0.073032
-0.07125
-0.073021
-0.071239
-0.06777
-0.06661
-0.068913
-0.070639
-0.075872
-0.085723
-0.074129
-0.064844
-0.061908
-0.059593
-0.056124
-0.055541
-0.052605
-0.047982
-0.045623
-0.04504
-0.043303
-0.044452
-0.050262
-0.053142
-0.048519
-0.047359
-0.043846
-0.045571
-0.056044
-0.064163
-0.051948
-0.040354
-0.035686
-0.03164
-0.028749
-0.026967
-0.024075
-0.025224
-0.025795
-0.021172
-0.013618
-0.016499
-0.026349
-0.029851
-0.025761
-0.021715
-0.02344
-0.026321
-0.032708
-0.036787
-0.018178
-0.0065846
-0.0019613
-0.0025328
-0.0059901
-0.0042528
0.0015692
0.0091227
0.016632
0.017259
0.013757
0.0091457
0.0050668
0.0073813
0.012626
0.012632
0.016678
0.019614
0.012072
0.0039528
0.019631
0.032379
0.035315
0.03763
0.040522
0.042259
0.044041
0.048087
0.050978
0.050407
0.055074
0.059698
0.060858
0.062062
0.068417
0.07193
0.074822
0.074828
0.067863
0.057435
0.06672
0.080667
0.093415
0.10212
0.10617
0.10737
0.11027
0.11431
0.12013
0.1236
0.12885
0.1364
0.13756
0.13757
0.14512
0.15152
0.15672
0.16196
0.16082
0.15443
0.16833
0.18112
0.18632
0.19214
0.1997
0.20898
0.21538
0.22001
0.22525
0.22699
0.22815
0.23282
0.23686
0.2386
0.24211
0.24674
0.25198
0.25487
0.25199
0.25142
0.26883
0.27696
0.28101
0.28505
0.2903
0.29843
0.30074
0.30426
0.30888
0.31004
0.31355
0.31644
0.31876
0.32169
0.32228
0.31704
0.31181
0.31066
0.30547
0.29966
0.31246
0.32405
0.33045
0.33161
0.33046
0.32811
0.32523
0.32582
0.32524
0.32121
0.31598
0.30959
0.29974
0.29393
0.28932
0.28466
0.27832
0.26847
0.25338
0.23656
0.23714
0.23714
0.23657
0.22788
0.21336
0.2012
0.19309
0.18847
0.18209
0.17281
0.16585
0.15715
0.14033
0.12644
0.12178
0.11948
0.11194
0.10151
0.083535
0.069599
0.069028
0.066725
0.063268
0.05688
0.048184
0.042373
0.037762
0.03022
0.022678
0.014558
0.008748
0.0035591
-0.0016741
-0.0085945
-0.014405
-0.017862
-0.020787
-0.027174
-0.040488
-0.04803
-0.043363
-0.041625
-0.04162
-0.038151
-0.039299
-0.043334
-0.049144
-0.052024
-0.051441
-0.054366
-0.052584
-0.052578
-0.058966
-0.057806
-0.0578
-0.062456
-0.064759
-0.066485
-0.076913
-0.082146
-0.072284
-0.064153
-0.060063
-0.05948
-0.055434
-0.056582
-0.058885
-0.05888
-0.060605
-0.062376
-0.064101
-0.061742
-0.062358
-0.061731
-0.063501
-0.063495
-0.061714
-0.064061
-0.080882
-0.088957
-0.076786
-0.068078
-0.062878
-0.059942
-0.060513
-0.064592
-0.064009
-0.054724
-0.051788
-0.057598
-0.058747
-0.06105
-0.065706
-0.0657
-0.063963
-0.062226
-0.060444
-0.059861
-0.074374
-0.076677
-0.06566
-0.058684
-0.05406
-0.051124
-0.05285
-0.056352
-0.057501
-0.055763
-0.053449
-0.05402
-0.053437
-0.053431
-0.05862
-0.059769
-0.057454
-0.056871
-0.056289
-0.058591
-0.069597
-0.069591
-0.060883
-0.055683
-0.053945
-0.056825
-0.058551
-0.057968
-0.051569
-0.045792
-0.042855
-0.041118
-0.040535
-0.038221
-0.042255
-0.044603
-0.043975
-0.050363
-0.056173
-0.055013
-0.064864
-0.063704
-0.054419
-0.04802
-0.046282
-0.045699
-0.042763
-0.042757
-0.041597
-0.0439
-0.043317
-0.042157
-0.036957
-0.038105
-0.046225
-0.04795
-0.045636
-0.044476
-0.045624
-0.050813
-0.064749
-0.063588
-0.052528
-0.047327
-0.04559
-0.042654
-0.040916
-0.044995
-0.04903
-0.049024
-0.049018
-0.049013
-0.047275
-0.049001
-0.053657
-0.053651
-0.050138
-0.049555
-0.049549
-0.05243
-0.069828
-0.068668
-0.05996
-0.05476
-0.048938
-0.046623
-0.045463
-0.043681
-0.044297
-0.046023
-0.044863
-0.045434
-0.044851
-0.041915
-0.045994
-0.048874
-0.048291
-0.051749
-0.055828
-0.057553
-0.07029
-0.068553
-0.063929
-0.063346
-0.06041
-0.056364
-0.054627
-0.051691
-0.049954
-0.049371
-0.046479
-0.043543
-0.044159
-0.049348
-0.055158
-0.056884
-0.057455
-0.053986
-0.048742
-0.052821
-0.068443
-0.064397
-0.053958
-0.046981
-0.046398
-0.04697
-0.050427
-0.058546
-0.060272
-0.055649
-0.053912
-0.053329
-0.052746
-0.053894
-0.056774
-0.057923
-0.05734
-0.056757
-0.057906
-0.059054
-0.072413
-0.071252
-0.059037
-0.052682
-0.054408
-0.054402
-0.051466
-0.052038
-0.050878
-0.050872
-0.053219
-0.055522
-0.056094
-0.060705
-0.066516
-0.068241
-0.064773
-0.060682
-0.060099
-0.060671
-0.075183
-0.075177
-0.06647
-0.059493
-0.060642
-0.064721
-0.067024
-0.064132
-0.060619
-0.061812
-0.063538
-0.0618
-0.058864
-0.059436
-0.065823
-0.068703
-0.06812
-0.064652
-0.060561
-0.061177
-0.073914
-0.072753
-0.069817
-0.07101
-0.07389
-0.070422
-0.065177
-0.061131
-0.062279
-0.064005
-0.065731
-0.069188
-0.065142
-0.058743
-0.057583
-0.054691
-0.052377
-0.052371
-0.054674
-0.055823
-0.059857
-0.043646
-0.030276
-0.020991
-0.014592
-0.0070386
-0.00010669
0.0028294
0.0051439
0.0074583
0.0091956
0.0097786
0.016178
0.020845
0.010995
0.004607
0.0046128
0.0057729
0.010396
0.012755
0.0040586
0.0063731
0.003493
0.0011456
0.0029273
0.0069734
0.0092878
0.020926
0.033097
0.041228
0.048204
0.054559
0.058072
0.061541
0.068517
0.077802
0.08247
0.081854
0.083636
0.085373
0.074945
0.077837
0.077265
0.075539
0.077277
0.080168
0.075557
0.069169
0.069175
0.069181
0.065723
0.064575
0.068044
0.074443
0.073294
0.074454
0.077346
0.079083
0.081975
0.080826
0.065204
0.066941
0.072719
0.07157
0.060565
0.048983
0.040286
0.036208
0.031019
0.028094
0.029299
0.027529
0.021762
0.017106
0.012495
0.010725
0.0020726
-0.0083996
-0.019982
-0.029255
-0.045499
-0.044917
-0.044911
-0.045482
-0.048362
-0.051864
-0.055321
-0.059933
-0.060549
-0.063429
-0.071548
-0.077891
-0.076731
-0.076725
-0.077874
-0.076714
-0.074399
-0.072085
-0.075542
-0.084816
-0.10452
-0.098745
-0.091769
-0.087723
-0.088294
-0.08709
-0.091169
-0.094049
-0.091734
-0.085335
-0.089414
-0.097533
-0.095752
-0.095746
-0.099825
-0.10155
-0.10039
-0.10038
-0.10269
-0.11138
-0.12763
-0.12065
-0.1143
-0.11194
-0.10962
-0.10904
-0.10961
-0.10264
-0.095659
-0.09743
-0.10435
-0.10727
-0.10958
-0.10957
-0.11245
-0.11014
-0.099698
-0.096806
-0.10084
-0.11478
-0.13448
-0.12347
-0.11418
-0.11009
-0.10605
-0.10369
-0.10426
-0.10834
-0.10891
-0.10193
-0.10135
-0.106
-0.11062
-0.1147
-0.11988
-0.11815
-0.11872
-0.12218
-0.12217
-0.12279
-0.13321
-0.12508
-0.11811
-0.11228
-0.10651
-0.10069
-0.10357
-0.11053
-0.11749
-0.12619
-0.12388
-0.10878
-0.093097
-0.084967
-0.079189
-0.07279
-0.068122
-0.062922
-0.052482
-0.040267
-0.029828
0.0032549
0.035716
0.061251
0.087363
0.12275
0.16454
0.20628
0.2498
0.30317
0.37106
0.43487
0.49579
0.55378
0.60888
0.66749
0.73481
0.80208
0.85776
0.91925
0.97729
1.0359
1.0805
1.1096
1.12
1.1067
1.0713
0.99473
0.85897
0.70354
0.57998
0.48253
0.37989
0.29345
0.22268
0.15947
0.094518
0.0313
-0.031917
-0.093981
-0.15489
-0.19258
-0.22334
-0.2442
-0.25814
-0.26799
-0.26798
-0.26216
-0.24648
-0.22388
-0.20531
-0.18848
-0.17453
-0.17337
-0.1763
-0.17278
-0.16932
-0.167
-0.16522
-0.16348
-0.16059
-0.13967
-0.12577
-0.11182
-0.10196
-0.097916
-0.093248
-0.085694
-0.077608
-0.071786
-0.071203
-0.066536
-0.061912
-0.063638
-0.067096
-0.06305
-0.064775
-0.065924
-0.071157
-0.079853
-0.083888
-0.072871
-0.062432
-0.055456
-0.05545
-0.05429
-0.056016
-0.05197
-0.048456
-0.049028
-0.051375
-0.051369
-0.047856
-0.045542
-0.048422
-0.052501
-0.052495
-0.050136
-0.05013
-0.055941
-0.066369
-0.052466
-0.042027
-0.036205
-0.032114
-0.031531
-0.028063
-0.022818
-0.022235
-0.024005
-0.025154
-0.028611
-0.029182
-0.029177
-0.032057
-0.030319
-0.024542
-0.02276
-0.019868
-0.028565
-0.03957
-0.031439
-0.024507
-0.016954
-0.0099774
-0.0065086
-0.0029953
-0.00010366
0.0034096
0.0074556
0.0086157
0.0057356
0.0016567
-0.0023778
-0.0012177
0.0040271
0.0057644
0.0046158
0.0069303
0.0028514
-0.004069
0.0034845
0.0040674
0.0075363
0.017398
0.02029
0.020296
0.023809
0.027855
0.029592
0.027867
0.026141
0.026147
0.027884
0.026158
0.020925
0.019199
0.029639
0.035461
0.027919
0.022153
0.037787
0.047072
0.050585
0.050013
0.051751
0.051179
0.052339
0.061624
0.070909
0.070338
0.067458
0.068041
0.068047
0.069207
0.071521
0.075612
0.077926
0.075623
0.062842
0.064002
0.081989
0.092429
0.092435
0.087823
0.08552
0.091875
0.10058
0.10698
0.11627
0.12209
0.12787
0.13196
0.13081
0.13485
0.13717
0.1378
0.13718
0.13954
0.13257
0.13143
0.14941
0.16389
0.16856
0.17496
0.1854
0.18887
0.19642
0.20167
0.1999
0.20225
0.20745
0.21097
0.21501
0.21617
0.22373
0.23594
0.24638
0.24697
0.23654
0.23827
0.25511
0.26843
0.27656
0.27888
0.28124
0.28701
0.2911
0.29631
0.30328
0.30271
0.30387
0.30738
0.3033
0.30446
0.31086
0.31669
0.31958
0.32247
0.3167
0.31671
0.33061
0.3399
0.3463
0.35034
0.35328
0.35444
0.35617
0.3608
0.362
0.35792
0.35735
0.35332
0.34924
0.3591
0.35911
0.35219
0.34638
0.3435
0.33418
0.32899
0.33188
0.33246
0.33247
0.33017
0.32378
0.31974
0.31105
0.30293
0.29481
0.28438
0.27395
0.26584
0.25483
0.25017
0.24148
0.23163
0.22408
0.21423
0.18871
0.17597
0.17944
0.18003
0.17888
0.17191
0.16322
0.15337
0.14409
0.13309
0.12901
0.12036
0.11455
0.10931
0.098885
0.089611
0.084378
0.07688
0.068761
0.065259
0.047284
0.038588
0.038593
0.037445
0.035142
0.032839
0.029914
0.027611
0.023577
0.018921
0.011956
0.0021053
-0.00077487
-0.00076911
-0.0013405
0.0021283
0.0021341
-0.0024776
-0.008288
-0.017562
-0.039
-0.041925
-0.028555
-0.022156
-0.029698
-0.032045
-0.032039
-0.032034
-0.031451
-0.026783
-0.017498
-0.01807
-0.025612
-0.033154
-0.038342
-0.037182
-0.036599
-0.034285
-0.033125
-0.034273
-0.046433
-0.043541
-0.035988
-0.029588
-0.022656
-0.022029
-0.02784
-0.030143
-0.027251
-0.020852
-0.01796
-0.023193
-0.031312
-0.036501
-0.036496
-0.033027
-0.028359
-0.023159
-0.023153
-0.027187
-0.045163
-0.050974
-0.039913
-0.028319
-0.027159
-0.028884
-0.025993
-0.02541
-0.02425
-0.024821
-0.024815
-0.022501
-0.024227
-0.027684
-0.02941
-0.025364
-0.026512
-0.031746
-0.029387
-0.027072
-0.04043
-0.043311
-0.035757
-0.02181
-0.013102
-0.0090563
-0.010205
-0.014861
-0.01601
-0.014849
-0.012491
-0.010753
-0.0095931
-0.011896
-0.018861
-0.027557
-0.025243
-0.015958
-0.013643
-0.019409
-0.039694
-0.042041
-0.032756
-0.021118
-0.011256
-0.003702
-0.00023318
-0.0025361
-0.0071922
-0.011227
-0.011798
-0.0089065
-0.0060148
-0.0088949
-0.01586
-0.018163
-0.01758
-0.015842
-0.01002
-0.007706
-0.024527
-0.027985
-0.020431
-0.011146
-0.0094087
-0.011712
-0.0099744
-0.016939
-0.020396
-0.015773
-0.008797
-0.0053281
-0.0029693
-0.0018091
-0.005888
-0.0105
-0.010494
-0.0087566
-0.012214
-0.018024
-0.030805
-0.024406
-0.013967
-0.0081449
-0.0081391
-0.011019
-0.017407
-0.01971
-0.021436
-0.020853
-0.017384
-0.017955
-0.017372
-0.016789
-0.013321
-0.014469
-0.017926
-0.021384
-0.024308
-0.020795
-0.02776
-0.024291
-0.019046
-0.012647
-0.013263
-0.015566
-0.016137
-0.015554
-0.01728
-0.017274
-0.016691
-0.015531
-0.01668
-0.021913
-0.029411
-0.030604
-0.035215
-0.032324
-0.017222
-0.017794
-0.041009
-0.040426
-0.030563
-0.029359
-0.031129
-0.025884
-0.022415
-0.018325
-0.014856
-0.01485
-0.01773
-0.01657
-0.013102
-0.020022
-0.032803
-0.037415
-0.032214
-0.029278
-0.033934
-0.040899
-0.055367
-0.045505
-0.037951
-0.03506
-0.031591
-0.029232
-0.029803
-0.030419
-0.022866
-0.014735
-0.017615
-0.024003
-0.029192
-0.030962
-0.027449
-0.025134
-0.027437
-0.02974
-0.030356
-0.032082
-0.041932
-0.034956
-0.029711
-0.022779
-0.015803
-0.018106
-0.027379
-0.034344
-0.032607
-0.029094
-0.031441
-0.034321
-0.039554
-0.043012
-0.040697
-0.043
-0.044726
-0.043566
-0.04356
-0.048793
-0.062684
-0.049936
-0.035989
-0.035984
-0.038287
-0.041211
-0.041205
-0.034229
-0.025521
-0.024361
-0.02551
-0.019111
-0.010403
-0.007511
-0.0080824
-0.0098082
-0.0074937
5.9801e-05
6.5564e-05
-0.0051677
-0.014441
-0.0022259
0.0082135
0.012837
0.022699
0.034337
0.038383
0.033771
0.027961
0.028544
0.034943
0.037258
0.032024
0.025681
0.022179
0.022185
0.022768
0.026281
0.024556
0.015282
0.0025011
0.018757
0.036744
0.045452
0.051274
0.05936
0.068068
0.076198
0.087259
0.088997
0.089002
0.094203
0.107
0.11397
0.11105
0.10817
0.10236
0.094815
0.082078
0.068143
0.057715
0.072816
0.082101
0.086769
0.092546
0.094861
0.097797
0.10127
0.10709
0.10594
0.098974
0.10129
0.10538
0.1013
0.096688
0.088569
0.078141
0.072331
0.064212
0.052052
0.038694
0.040432
0.03986
0.040443
0.038717
0.034683
0.02945
0.027724
0.028307
0.028313
0.021925
0.013229
0.0022235
-0.0099359
-0.014592
-0.013432
-0.019775
-0.027317
-0.036591
-0.048217
-0.059799
-0.051092
-0.04527
-0.042955
-0.041795
-0.045829
-0.055103
-0.059759
-0.060908
-0.058016
-0.057433
-0.058004
-0.058576
-0.066118
-0.072461
-0.073032
-0.077111
-0.080569
-0.083493
-0.086951
-0.096801
-0.088093
-0.081117
-0.078803
-0.075334
-0.071243
-0.070083
-0.073541
-0.076465
-0.077036
-0.075299
-0.074139
-0.07178
-0.076436
-0.081048
-0.079311
-0.083389
-0.083384
-0.087418
-0.093806
-0.10192
-0.10014
-0.094366
-0.090275
-0.094354
-0.094926
-0.089104
-0.08155
-0.083898
-0.087932
-0.090235
-0.09316
-0.096617
-0.099497
-0.099491
-0.099485
-0.10126
-0.097742
-0.097159
-0.10643
-0.11979
-0.10873
-0.097136
-0.084965
-0.08496
-0.083222
-0.079132
-0.087828
-0.091907
-0.086085
-0.081995
-0.080258
-0.084914
-0.093033
-0.095336
-0.096484
-0.099364
-0.099936
-0.10459
-0.11853
-0.13997
-0.13126
-0.11443
-0.10572
-0.099318
-0.085416
-0.079594
-0.070886
-0.062755
-0.051162
-0.039568
-0.022735
-0.0041707
0.017324
0.04166
0.067195
0.088112
0.12408
0.17452
0.21107
0.25228
0.33815
0.41123
0.471
0.52957
0.59804
0.66242
0.71752
0.7744
0.826
0.88577
0.95943
1.0198
1.0691
1.1155
1.1462
1.1497
1.1294
1.0801
0.96356
0.79476
0.66774
0.57842
0.49141
0.398
0.32492
0.25416
0.18632
0.13412
0.083063
0.024463
-0.024236
-0.066586
-0.11067
-0.14951
-0.18258
-0.21215
-0.23421
-0.25218
-0.27073
-0.27419
-0.25216
-0.23356
-0.21268
-0.19123
-0.17613
-0.16973
-0.16218
-0.15289
-0.15058
-0.15581
-0.1523
-0.15345
-0.16041
-0.15579
-0.14708
-0.13953
-0.13952
-0.13428
-0.12615
-0.12792
-0.10935
-0.089012
-0.076264
-0.064049
-0.055963
-0.054181
-0.049558
-0.046666
-0.046039
-0.041416
-0.033285
-0.034433
-0.038512
-0.040815
-0.041387
-0.044267
-0.0495
-0.052957
-0.05122
-0.049483
-0.039043
-0.041346
-0.041918
-0.038449
-0.038443
-0.043055
-0.048865
-0.048282
-0.039575
-0.036061
-0.031438
-0.030278
-0.038397
-0.040123
-0.034878
-0.030832
-0.033712
-0.034861
-0.043557
-0.052831
-0.038928
-0.025558
-0.018005
-0.017999
-0.019769
-0.019142
-0.015673
-0.011627
-0.012199
-0.014502
-0.012187
-0.009251
-0.012176
-0.012747
-0.010388
-0.010382
-0.011575
-0.013301
-0.019067
-0.018484
-0.0097763
-0.010969
-0.0063017
-0.00047978
0.0035662
0.011697
0.015166
0.0082454
0.0053208
0.0088341
0.015766
0.018125
0.010006
0.0036181
0.0094401
0.01464
0.015801
0.012343
0.0053785
0.0094689
0.025724
0.026307
0.022229
0.019926
0.017045
0.017628
0.022252
0.029228
0.036781
0.042559
0.044918
0.041993
0.039113
0.04085
0.042011
0.043171
0.043176
0.043804
0.030446
0.026411
0.042045
0.053683
0.056575
0.057735
0.058895
0.061831
0.068763
0.072854
0.072859
0.070556
0.071717
0.078071
0.081007
0.087362
0.095493
0.099583
0.10363
0.1083
0.10018
0.091481
0.10481
0.11529
0.12107
0.12747
0.13036
0.13445
0.13792
0.13966
0.14432
0.14895
0.15188
0.15362
0.15709
0.16464
0.16873
0.17105
0.17221
0.17568
0.16933
0.17107
0.18733
0.20007
0.21051
0.21749
0.2198
0.22447
0.23491
0.2465
0.24593
0.24305
0.25003
0.25234
0.24826
0.25293
0.25991
0.26395
0.26569
0.26747
0.25935
0.26513
0.28312
0.29125
0.29356
0.29419
0.29184
0.29478
0.30637
0.31335
0.31393
0.31913
0.32553
0.33309
0.33713
0.33949
0.34065
0.34297
0.34643
0.34879
0.33313
0.32847
0.34299
0.3517
0.35344
0.35868
0.36215
0.36567
0.3639
0.35755
0.35347
0.34132
0.3332
0.32974
0.32393
0.31927
0.31986
0.31986
0.31467
0.30482
0.28627
0.2793
0.28162
0.28162
0.27644
0.26716
0.25727
0.24511
0.2341
0.22945
0.22426
0.21441
0.20917
0.20221
0.18366
0.16683
0.15698
0.14367
0.13262
0.12512
0.10537
0.099028
0.10365
0.098462
0.089766
0.082801
0.076414
0.070603
0.067146
0.062534
0.057301
0.045719
0.038754
0.038183
0.032372
0.025407
0.020796
0.021379
0.014414
0.0068719
-0.010527
-0.014561
-0.0075847
-3.1206e-05
0.0022833
0.0034434
-0.0012127
-0.0023613
-0.0058186
-0.014515
-0.018594
-0.021474
-0.019159
-0.014492
-0.019148
-0.022605
-0.02664
-0.03245
-0.03129
-0.030707
-0.046951
-0.049831
-0.039392
-0.031838
-0.031833
-0.032404
-0.036483
-0.03994
-0.040512
-0.036466
-0.032375
-0.028906
-0.028323
-0.031204
-0.040477
-0.041626
-0.03758
-0.035221
-0.036414
-0.044489
-0.06131
-0.056687
-0.044471
-0.038117
-0.038111
-0.040991
-0.043294
-0.053766
-0.056646
-0.050824
-0.050819
-0.052544
-0.051384
-0.054309
-0.061229
-0.059492
-0.055446
-0.049624
-0.046155
-0.047304
-0.062971
-0.060612
-0.052481
-0.043196
-0.037996
-0.038567
-0.035631
-0.032162
-0.029848
-0.025757
-0.027527
-0.032139
-0.030402
-0.032705
-0.033276
-0.030384
-0.034419
-0.040229
-0.039646
-0.040218
-0.050646
-0.045445
-0.035539
-0.027452
-0.025094
-0.021625
-0.01931
-0.021613
-0.029732
-0.035498
-0.03203
-0.032024
-0.026823
-0.029704
-0.037823
-0.038394
-0.034304
-0.032566
-0.034292
-0.033132
-0.044137
-0.036628
-0.026766
-0.019212
-0.018629
-0.022087
-0.022081
-0.023229
-0.024378
-0.022641
-0.021481
-0.019166
-0.020892
-0.02728
-0.032468
-0.027268
-0.022023
-0.024326
-0.028982
-0.033594
-0.048106
-0.044016
-0.034731
-0.027799
-0.026639
-0.025434
-0.026627
-0.030662
-0.025417
-0.021948
-0.024251
-0.027753
-0.030633
-0.033513
-0.040478
-0.042204
-0.040467
-0.034645
-0.034062
-0.041604
-0.055539
-0.047408
-0.036392
-0.032301
-0.030564
-0.029404
-0.031707
-0.032855
-0.035158
-0.039814
-0.038654
-0.035141
-0.032249
-0.036328
-0.039208
-0.039203
-0.046745
-0.045007
-0.045002
-0.047882
-0.054269
-0.046139
-0.03974
-0.038579
-0.046121
-0.05131
-0.051882
-0.053652
-0.051293
-0.044938
-0.046087
-0.046658
-0.042568
-0.039099
-0.038516
-0.043128
-0.047784
-0.048932
-0.050081
-0.047189
-0.053
-0.048332
-0.046595
-0.047166
-0.044275
-0.038453
-0.034362
-0.036132
-0.038435
-0.041315
-0.051166
-0.056977
-0.054085
-0.052925
-0.052919
-0.052292
-0.046514
-0.040115
-0.033139
-0.036063
-0.062164
-0.065044
-0.055759
-0.047051
-0.043538
-0.043532
-0.043526
-0.038903
-0.035434
-0.033075
-0.029606
-0.026138
-0.016808
-0.0092991
-0.0052087
-8.2793e-06
-0.0040428
-0.0069229
9.0087e-06
0.0075625
-0.0022882
0.0064197
0.020367
0.023258
0.016871
0.0075971
-0.0010992
0.0012596
0.0053057
0.01055
0.0058944
0.0041686
0.0087918
0.010573
0.012888
0.022173
0.020447
0.018677
0.017528
0.015803
0.0088379
0.027402
0.042503
0.04948
0.056456
0.058771
0.061085
0.061091
0.061097
0.070382
0.071542
0.065198
0.063428
0.066364
0.067525
0.069839
0.073352
0.072159
0.061731
0.051881
0.045493
0.06348
0.078004
0.09426
0.10528
0.10586
0.094854
0.079187
0.080925
0.087324
0.086752
0.084449
0.080371
0.081575
0.078651
0.071686
0.054909
0.044437
0.040402
0.024158
0.0027194
0.014313
0.028837
0.032883
0.022455
0.014913
0.013765
0.0091087
-0.0013191
-0.0070852
-0.014627
-0.020438
-0.015193
-0.0064849
-0.012873
-0.027962
-0.031997
-0.032568
-0.047658
-0.085346
-0.10972
-0.091728
-0.076627
-0.067342
-0.065028
-0.06733
-0.063862
-0.066165
-0.074284
-0.07601
-0.078312
-0.075421
-0.073106
-0.079494
-0.082951
-0.079482
-0.078278
-0.084666
-0.094516
-0.10148
-0.10729
-0.097429
-0.090453
-0.085785
-0.083471
-0.088704
-0.092161
-0.090424
-0.094459
-0.097383
-0.10084
-0.10199
-0.097366
-0.092121
-0.087453
-0.084562
-0.084556
-0.091521
-0.096132
-0.10483
-0.11934
-0.10366
-0.090915
-0.087402
-0.090326
-0.097868
-0.094355
-0.094926
-0.10713
-0.10886
-0.10827
-0.11581
-0.11403
-0.11114
-0.11229
-0.10824
-0.10708
-0.11343
-0.11693
-0.12212
-0.13139
-0.12211
-0.11691
-0.10993
-0.10411
-0.10179
-0.10236
-0.10467
-0.10817
-0.10816
-0.10758
-0.10757
-0.10988
-0.11453
-0.11857
-0.12318
-0.12841
-0.13249
-0.13306
-0.13998
-0.14349
-0.11911
-0.099964
-0.087793
-0.076154
-0.060476
-0.051191
-0.038443
-0.023342
-0.0077077
-0.0013085
0.012638
0.038173
0.064862
0.10487
0.15243
0.20061
0.24177
0.28009
0.32996
0.38626
0.45761
0.52835
0.60436
0.67572
0.73082
0.7865
0.84511
0.90546
0.98143
1.0423
1.0887
1.1352
1.1613
1.1526
1.1166
1.0552
0.93161
0.75585
0.60618
0.50585
0.42696
0.34052
0.26283
0.18625
0.11087
0.049957
0.011114
-0.031813
-0.086329
-0.14897
-0.21223
-0.24992
-0.26905
-0.28294
-0.28702
-0.28235
-0.26436
-0.24291
-0.21911
-0.19358
-0.1791
-0.18486
-0.17154
-0.1611
-0.16109
-0.16513
-0.17036
-0.16223
-0.15525
-0.15178
-0.14192
-0.13028
-0.12624
-0.1158
-0.10709
-0.10593
-0.0978
-0.093132
-0.098943
-0.10125
-0.08792
-0.075128
-0.068152
-0.067569
-0.066986
-0.06991
-0.069904
-0.064082
-0.05422
-0.048975
-0.050124
-0.064059
-0.076219
-0.071018
-0.07159
-0.073316
-0.070424
-0.072727
-0.078537
-0.075601
-0.065162
-0.054722
-0.042552
-0.04077
-0.030908
-0.011189
-0.0036355
-0.018148
-0.031462
-0.036695
-0.030873
-0.021011
-0.020428
-0.027393
-0.043637
-0.047094
-0.038386
-0.032564
-0.043037
-0.048803
-0.037209
-0.026769
-0.022102
-0.020364
-0.02209
-0.029632
-0.03309
-0.026735
-0.019759
-0.014514
-0.012199
-0.011039
-0.013342
-0.0267
-0.030735
-0.017409
-0.0057713
-0.0023025
-0.0098444
-0.019118
-0.026083
-0.021992
-0.013862
-0.0086613
0.0047084
0.0076001
0.0099146
0.016314
0.0047315
-0.0051192
-0.000496
0.005326
0.013457
0.019234
0.0047661
-0.0085921
-0.0016158
0.0076693
-0.0021814
-0.008569
0.0042235
0.010001
0.011161
0.012943
0.026845
0.049494
0.065128
0.07095
0.062254
0.036153
0.016446
0.03097
0.048957
0.058242
0.056517
0.061717
0.054752
0.031582
0.021731
0.031016
0.04261
0.052472
0.061757
0.068157
0.075133
0.080333
0.084424
0.087315
0.082082
0.078625
0.081516
0.083298
0.085613
0.087927
0.091973
0.098949
0.10304
0.099538
0.088533
0.093778
0.11003
0.12394
0.1274
0.1251
0.12626
0.13266
0.14483
0.15474
0.15532
0.15533
0.1588
0.15356
0.14664
0.153
0.16113
0.16868
0.17215
0.17509
0.16581
0.17044
0.18727
0.20006
0.20699
0.21224
0.21748
0.22153
0.22442
0.22909
0.23487
0.24011
0.24766
0.25229
0.25229
0.25523
0.25754
0.26159
0.26683
0.26799
0.25757
0.2593
0.2721
0.28254
0.28951
0.29356
0.2988
0.30112
0.30516
0.31041
0.31272
0.31504
0.3197
0.31682
0.31044
0.31102
0.3116
0.31627
0.31743
0.31335
0.30062
0.30062
0.30933
0.31861
0.32266
0.32267
0.32267
0.32268
0.31864
0.30995
0.30298
0.29429
0.29025
0.2891
0.27978
0.27286
0.26705
0.25951
0.25197
0.24154
0.22126
0.21602
0.21718
0.21546
0.20734
0.19576
0.18764
0.17606
0.15111
0.14126
0.13603
0.12853
0.12156
0.11748
0.10763
0.09432
0.08327
0.074574
0.062414
0.049101
0.034588
0.034594
0.036331
0.036337
0.035188
0.031731
0.024189
0.018379
0.014344
0.0079565
0.0015689
-0.0013113
-0.0088532
-0.023366
-0.038411
-0.041336
-0.040708
-0.041901
-0.045936
-0.050015
-0.064483
-0.061014
-0.058078
-0.058649
-0.056335
-0.061568
-0.060985
-0.059248
-0.060974
-0.063854
-0.06558
-0.065574
-0.066722
-0.065562
-0.062671
-0.059202
-0.059196
-0.060922
-0.076544
-0.094564
-0.10499
-0.093931
-0.08176
-0.076515
-0.075355
-0.074772
-0.074189
-0.071875
-0.077685
-0.082874
-0.084023
-0.080554
-0.077662
-0.074149
-0.075875
-0.071829
-0.064853
-0.073549
-0.090947
-0.098489
-0.11007
-0.10372
-0.092656
-0.083948
-0.080479
-0.079896
-0.07989
-0.07873
-0.078147
-0.076987
-0.07929
-0.076976
-0.07404
-0.071148
-0.073451
-0.079838
-0.085649
-0.083867
-0.081553
-0.08097
-0.094328
-0.090815
-0.080953
-0.078061
-0.081518
-0.080358
-0.075113
-0.071067
-0.070484
-0.069901
-0.069896
-0.070467
-0.067575
-0.065794
-0.07045
-0.071021
-0.073901
-0.079712
-0.082592
-0.085516
-0.095367
-0.087236
-0.08026
-0.077368
-0.073855
-0.071541
-0.070958
-0.070952
-0.070369
-0.069209
-0.068626
-0.069775
-0.068614
-0.068609
-0.072643
-0.072637
-0.072054
-0.073203
-0.074352
-0.077276
-0.087704
-0.079573
-0.072597
-0.07086
-0.0697
-0.071425
-0.073728
-0.07026
-0.065592
-0.063855
-0.068511
-0.071391
-0.069654
-0.074265
-0.078344
-0.075985
-0.074248
-0.075397
-0.074236
-0.071922
-0.081195
-0.079458
-0.073636
-0.073053
-0.082327
-0.077704
-0.070727
-0.071299
-0.072447
-0.073596
-0.078829
-0.079978
-0.077663
-0.077657
-0.081692
-0.082841
-0.084566
-0.085182
-0.086331
-0.088634
-0.10079
-0.092085
-0.081069
-0.075247
-0.075818
-0.075235
-0.077005
-0.079308
-0.079303
-0.078142
-0.079291
-0.08044
-0.07928
-0.081582
-0.086239
-0.09085
-0.090267
-0.087376
-0.086793
-0.089096
-0.098946
-0.083268
-0.067634
-0.061812
-0.060075
-0.065263
-0.086747
-0.098906
-0.099477
-0.091924
-0.089609
-0.085563
-0.088444
-0.10003
-0.10353
-0.098283
-0.094814
-0.093654
-0.093026
-0.099414
-0.1122
-0.10229
-0.091272
-0.086071
-0.082558
-0.077935
-0.074999
-0.073839
-0.072102
-0.07325
-0.071513
-0.059919
-0.051788
-0.051205
-0.054663
-0.052348
-0.047681
-0.041326
-0.037813
-0.040737
-0.049434
-0.039527
-0.02851
-0.022156
-0.02215
-0.020945
-0.022716
-0.026173
-0.027899
-0.025584
-0.02731
-0.024995
-0.025567
-0.031377
-0.035412
-0.030744
-0.023235
-0.019722
-0.018562
-0.016247
-0.016819
0.0029
0.017424
0.027863
0.037149
0.039463
0.038892
0.042405
0.046451
0.048188
0.04997
0.050553
0.046474
0.040708
0.035475
0.034903
0.02967
0.024481
0.018671
0.010552
0.00070081
0.015802
0.023356
0.030865
0.040771
0.04828
0.051216
0.050068
0.051805
0.051811
0.047732
0.044852
0.039619
0.028036
0.01934
0.0089122
-0.00036135
-0.0044402
-0.012515
-0.025296
-0.039809
-0.030479
-0.023547
-0.020034
-0.024113
-0.028147
-0.036266
-0.043231
-0.046111
-0.051345
-0.057732
-0.064075
-0.070463
-0.079737
-0.090164
-0.095975
-0.099432
-0.10524
-0.10985
-0.11971
-0.13653
-0.13133
-0.12435
-0.12204
-0.12203
-0.12491
-0.1249
-0.12605
-0.13071
-0.1307
-0.1307
-0.13011
-0.12776
-0.13183
-0.13645
-0.13702
-0.13821
-0.14051
-0.14397
-0.15094
-0.16194
-0.15381
-0.14919
-0.14567
-0.14278
-0.13989
-0.14508
-0.148
-0.14507
-0.14799
-0.15145
-0.15029
-0.15201
-0.15552
-0.1584
-0.16012
-0.16012
-0.16069
-0.16534
-0.17519
-0.18389
-0.17052
-0.16412
-0.16123
-0.1618
-0.1618
-0.16064
-0.15774
-0.15481
-0.15542
-0.15946
-0.16061
-0.15887
-0.16002
-0.15828
-0.1577
-0.16231
-0.16466
-0.16465
-0.17335
-0.18378
-0.17507
-0.16925
-0.16285
-0.16111
-0.16053
-0.16283
-0.16282
-0.16109
-0.1605
-0.16223
-0.16049
-0.1576
-0.1599
-0.16629
-0.17033
-0.17556
-0.17786
-0.18074
-0.18944
-0.19179
-0.17202
-0.15346
-0.1384
-0.12969
-0.11863
-0.10704
-0.097753
-0.087891
-0.076875
-0.060619
-0.036239
-0.013634
0.0061291
0.032197
0.065279
0.10418
0.14246
0.18131
0.21786
0.26719
0.34316
0.41105
0.47197
0.53809
0.60362
0.66805
0.73474
0.79451
0.85601
0.91981
0.97088
1.0063
1.0225
1.0306
1.0231
0.98538
0.91115
0.77716
0.60663
0.47034
0.37866
0.29107
0.20641
0.13391
0.064298
-0.00296
-0.062715
-0.11838
-0.17525
-0.23208
-0.28024
-0.32024
-0.34634
-0.35388
-0.35095
-0.33935
-0.3243
-0.3092
-0.30222
-0.29582
-0.27264
-0.25172
-0.2384
-0.22853
-0.22502
-0.22213
-0.21515
-0.20183
-0.19196
-0.18672
-0.17801
-0.17161
-0.16988
-0.16348
-0.15597
-0.14784
-0.13971
-0.13388
-0.13969
-0.14027
-0.12516
-0.11473
-0.11068
-0.11183
-0.11182
-0.11643
-0.11936
-0.11527
-0.11353
-0.11295
-0.11236
-0.11351
-0.11697
-0.11581
-0.11465
-0.11407
-0.11291
-0.11059
-0.12044
-0.12506
-0.11346
-0.10591
-0.10302
-0.099503
-0.10065
-0.098337
-0.093714
-0.096594
-0.097743
-0.096006
-0.093691
-0.093685
-0.095411
-0.095982
-0.094245
-0.091309
-0.084954
-0.081441
-0.092491
-0.097102
-0.088972
-0.082572
-0.079104
-0.076789
-0.076206
-0.075046
-0.07211
-0.073836
-0.076183
-0.076177
-0.075017
-0.072658
-0.075006
-0.077309
-0.079612
-0.078452
-0.073784
-0.070892
-0.085982
-0.087708
-0.078423
-0.071446
-0.069709
-0.067972
-0.060418
-0.060413
-0.060407
-0.051699
-0.04823
-0.046448
-0.043557
-0.042974
-0.0447
-0.043539
-0.041225
-0.041796
-0.044099
-0.045248
-0.058029
-0.057446
-0.04119
-0.030751
-0.025506
-0.023192
-0.019678
-0.019096
-0.02202
-0.019661
-0.013306
-0.012146
-0.013295
-0.014444
-0.017324
-0.016741
-0.016158
-0.016152
-0.015569
-0.014986
-0.023105
-0.019015
-0.010307
-0.0039522
0.0041784
0.0076917
0.012892
0.01756
0.021028
0.022766
0.025702
0.026862
0.026291
0.029759
0.035004
0.042558
0.043141
0.040793
0.044884
0.050084
0.040811
0.040816
0.050101
0.0565
0.062322
0.071607
0.078584
0.080321
0.083213
0.089035
0.094235
0.09948
0.10468
0.10935
0.11051
0.1146
0.11691
0.12038
0.12505
0.13203
0.12333
0.12622
0.13839
0.14883
0.15874
0.16682
0.17553
0.18251
0.18775
0.19295
0.1982
0.20282
0.2098
0.21154
0.20577
0.20924
0.21391
0.21911
0.22551
0.22085
0.20349
0.20985
0.22495
0.23597
0.24583
0.25396
0.25512
0.25455
0.26095
0.27081
0.27428
0.27198
0.27314
0.27314
0.26911
0.26969
0.27258
0.27552
0.27668
0.27029
0.25405
0.25756
0.268
0.27378
0.27556
0.27556
0.27206
0.26687
0.26222
0.26107
0.25761
0.25238
0.2495
0.24657
0.23499
0.22106
0.21063
0.20833
0.20194
0.18632
0.16426
0.16311
0.16369
0.15672
0.14572
0.14049
0.13357
0.12429
0.11502
0.10575
0.099358
0.090662
0.078458
0.065721
0.054139
0.047174
0.038478
0.02805
0.018776
0.0089258
-0.010204
-0.009044
-0.0026893
-0.0078782
-0.017152
-0.024694
-0.029927
-0.035116
-0.039195
-0.045538
-0.052503
-0.057736
-0.062348
-0.068735
-0.078586
-0.082088
-0.080883
-0.082076
-0.088419
-0.096538
-0.11509
-0.11451
-0.10811
-0.10753
-0.11045
-0.11218
-0.10871
-0.11101
-0.11331
-0.11389
-0.11561
-0.11445
-0.1156
-0.12026
-0.12664
-0.1301
-0.13125
-0.13067
-0.13181
-0.13469
-0.14805
-0.14165
-0.13064
-0.12775
-0.13178
-0.13408
-0.13408
-0.13292
-0.13003
-0.12713
-0.12713
-0.12654
-0.12712
-0.13
-0.1323
-0.12825
-0.12825
-0.13113
-0.13401
-0.1404
-0.15025
-0.14096
-0.13225
-0.12936
-0.12993
-0.12935
-0.12992
-0.12992
-0.13049
-0.13221
-0.13105
-0.12758
-0.127
-0.12988
-0.13045
-0.13102
-0.13568
-0.13448
-0.13216
-0.13158
-0.14085
-0.13157
-0.12637
-0.12636
-0.12693
-0.12457
-0.12284
-0.11937
-0.11701
-0.11181
-0.10656
-0.10483
-0.10655
-0.11121
-0.11582
-0.12105
-0.12105
-0.11815
-0.11695
-0.1193
-0.13203
-0.12683
-0.11693
-0.11519
-0.11811
-0.12099
-0.12503
-0.12271
-0.11343
-0.10996
-0.114
-0.11284
-0.11398
-0.11456
-0.11166
-0.11339
-0.11805
-0.12035
-0.12034
-0.12207
-0.13485
-0.12845
-0.12032
-0.11507
-0.11742
-0.11742
-0.11448
-0.11274
-0.11562
-0.11446
-0.10984
-0.10748
-0.10983
-0.11386
-0.11967
-0.12544
-0.12779
-0.12543
-0.12311
-0.12719
-0.13935
-0.12834
-0.12078
-0.11669
-0.11207
-0.10975
-0.11263
-0.11147
-0.11147
-0.11377
-0.11607
-0.11434
-0.11144
-0.11606
-0.12014
-0.11724
-0.11315
-0.11546
-0.123
-0.13227
-0.1439
-0.13284
-0.12298
-0.11658
-0.11777
-0.12065
-0.12295
-0.11891
-0.11482
-0.11596
-0.12235
-0.12643
-0.12873
-0.12873
-0.12584
-0.12001
-0.12059
-0.12404
-0.13101
-0.13509
-0.14258
-0.13099
-0.12694
-0.12809
-0.12578
-0.12284
-0.12515
-0.12692
-0.1234
-0.12051
-0.11993
-0.11934
-0.11583
-0.11409
-0.11875
-0.12572
-0.12451
-0.12162
-0.12161
-0.128
-0.14367
-0.13438
-0.12505
-0.11985
-0.12042
-0.11869
-0.1146
-0.1117
-0.10704
-0.10126
-0.098324
-0.091969
-0.086724
-0.084987
-0.086135
-0.083821
-0.079731
-0.077993
-0.077987
-0.080912
-0.085524
-0.071577
-0.068108
-0.073341
-0.077376
-0.070399
-0.066931
-0.066348
-0.063456
-0.062251
-0.061091
-0.060508
-0.06108
-0.060497
-0.062223
-0.059908
-0.056439
-0.046
-0.034362
-0.037863
-0.04363
-0.02915
-0.01871
-0.01058
-0.0064894
-0.0082151
-0.0053235
0.0016528
0.0085848
0.010366
0.0085963
0.0074477
0.0092294
0.0051505
-0.0012371
-0.0081575
-0.016277
-0.020933
-0.023236
-0.026116
-0.034235
-0.02495
-0.0098931
0.008094
0.01103
0.0075284
0.011619
0.017396
0.024373
0.02207
0.013373
0.0075629
0.0023741
-0.0068994
-0.019103
-0.028954
-0.03765
-0.038799
-0.041102
-0.053883
-0.066042
-0.054448
-0.051512
-0.0579
-0.064865
-0.07183
-0.079327
-0.086292
-0.090371
-0.09556
-0.10483
-0.11064
-0.11583
-0.12453
-0.135
-0.13846
-0.14134
-0.14369
-0.14541
-0.15699
-0.17035
-0.15698
-0.15001
-0.15058
-0.14884
-0.15176
-0.15464
-0.15291
-0.15175
-0.15405
-0.16039
-0.16563
-0.1662
-0.17085
-0.17143
-0.17027
-0.16906
-0.17025
-0.17313
-0.18241
-0.1975
-0.1911
-0.18585
-0.18642
-0.18935
-0.18819
-0.18818
-0.18698
-0.1864
-0.18759
-0.19105
-0.18931
-0.18988
-0.19565
-0.19684
-0.19159
-0.1852
-0.18812
-0.19624
-0.20431
-0.21012
-0.20026
-0.19559
-0.19097
-0.19039
-0.19442
-0.20254
-0.2008
-0.19556
-0.1944
-0.19732
-0.19497
-0.1915
-0.19495
-0.19846
-0.20018
-0.19729
-0.18916
-0.18858
-0.19612
-0.20597
-0.19549
-0.1874
-0.18562
-0.18619
-0.18503
-0.18041
-0.17925
-0.18039
-0.18154
-0.18673
-0.18792
-0.18672
-0.19368
-0.1995
-0.20531
-0.21049
-0.21049
-0.20933
-0.2099
-0.20528
-0.18667
-0.17392
-0.16117
-0.14896
-0.13852
-0.13736
-0.12576
-0.10254
-0.079311
-0.056129
-0.03348
-0.019578
0.0013398
0.043657
0.088328
0.13127
0.1806
0.24148
0.29605
0.35173
0.42251
0.49444
0.56055
0.62147
0.67715
0.72822
0.79726
0.87323
0.93531
0.98637
1.0195
1.0339
1.0252
0.9951
0.92957
0.80429
0.65636
0.52934
0.41622
0.31992
0.24627
0.18017
0.11575
0.053109
-0.0083766
-0.066355
-0.11972
-0.16784
-0.21543
-0.2624
-0.29835
-0.32618
-0.34767
-0.3581
-0.35867
-0.35111
-0.34067
-0.32966
-0.32903
-0.32152
-0.29541
-0.27161
-0.25189
-0.24722
-0.25072
-0.24956
-0.24374
-0.23676
-0.23387
-0.23036
-0.22165
-0.21472
-0.20774
-0.20077
-0.19672
-0.18508
-0.16945
-0.15723
-0.16189
-0.16765
-0.15664
-0.15086
-0.1485
-0.14095
-0.13748
-0.13516
-0.13516
-0.14092
-0.14443
-0.14615
-0.14091
-0.13455
-0.13339
-0.13396
-0.13627
-0.13626
-0.13279
-0.13043
-0.14206
-0.14783
-0.13508
-0.12344
-0.11882
-0.11939
-0.11996
-0.11822
-0.11471
-0.11297
-0.11297
-0.11354
-0.11238
-0.10949
-0.11006
-0.1089
-0.11005
-0.1135
-0.11119
-0.10772
-0.12161
-0.12396
-0.1164
-0.11
-0.10596
-0.10826
-0.1071
-0.10417
-0.10127
-0.10011
-0.10299
-0.10592
-0.10356
-0.10009
-0.10239
-0.10527
-0.10469
-0.098336
-0.094246
-0.098902
-0.10991
-0.10702
-0.09076
-0.080897
-0.076807
-0.07507
-0.07391
-0.073904
-0.075052
-0.072738
-0.069225
-0.068642
-0.06575
-0.068053
-0.074441
-0.075589
-0.073852
-0.070383
-0.070377
-0.073258
-0.085417
-0.083102
-0.068001
-0.058716
-0.054093
-0.054087
-0.053504
-0.050568
-0.043059
-0.034928
-0.034346
-0.037226
-0.035488
-0.033129
-0.036631
-0.034894
-0.033689
-0.033684
-0.036031
-0.036602
-0.041214
-0.031929
-0.016872
-0.0093187
-0.0046511
-0.0034909
-0.0017536
0.0034911
0.0040741
0.0040798
0.008703
0.015679
0.020347
0.021507
0.018583
0.01628
0.019171
0.027879
0.027885
0.026736
0.019194
0.023285
0.034878
0.038969
0.041283
0.048837
0.054037
0.05755
0.065104
0.072036
0.077281
0.08075
0.087149
0.09004
0.08716
0.097022
0.10688
0.11213
0.11618
0.11676
0.10691
0.111
0.12548
0.14289
0.15275
0.15799
0.15915
0.15974
0.16325
0.16961
0.17312
0.18005
0.18818
0.18934
0.18242
0.18358
0.19171
0.19749
0.19634
0.19231
0.17953
0.18419
0.19987
0.21728
0.22772
0.23004
0.22889
0.22774
0.2289
0.2353
0.24108
0.24863
0.25387
0.2533
0.2498
0.25096
0.25274
0.25332
0.25564
0.25507
0.24056
0.24229
0.24927
0.25278
0.2551
0.25279
0.24929
0.24699
0.24642
0.24118
0.23484
0.23134
0.22673
0.21803
0.2076
0.20179
0.19656
0.1896
0.1757
0.15715
0.13278
0.13048
0.13049
0.12698
0.12064
0.11425
0.10613
0.097437
0.089895
0.081199
0.06904
0.055681
0.047607
0.037712
0.024975
0.019165
0.013399
0.0023935
-0.010965
-0.016198
-0.029512
-0.02662
-0.02546
-0.02834
-0.032375
-0.038185
-0.045727
-0.051537
-0.056726
-0.05672
-0.065417
-0.072382
-0.074685
-0.078186
-0.092077
-0.10193
-0.1025
-0.10076
-0.10133
-0.10888
-0.12801
-0.12338
-0.1129
-0.10885
-0.11346
-0.1187
-0.12215
-0.12566
-0.12796
-0.12449
-0.12448
-0.1239
-0.12967
-0.13606
-0.13836
-0.14008
-0.14008
-0.14007
-0.13834
-0.13775
-0.14938
-0.14644
-0.14182
-0.13831
-0.13368
-0.13017
-0.13074
-0.13074
-0.12496
-0.1238
-0.12899
-0.13071
-0.1284
-0.12897
-0.13882
-0.14232
-0.14058
-0.13534
-0.13707
-0.14634
-0.16143
-0.15445
-0.1417
-0.13704
-0.13588
-0.13241
-0.13356
-0.13701
-0.13297
-0.12715
-0.13122
-0.13526
-0.13583
-0.13929
-0.14279
-0.14105
-0.13869
-0.13696
-0.13926
-0.14276
-0.15203
-0.14564
-0.14101
-0.13634
-0.13172
-0.12821
-0.12589
-0.12358
-0.12242
-0.12299
-0.12818
-0.12817
-0.12528
-0.12412
-0.12412
-0.127
-0.12872
-0.12698
-0.1264
-0.13044
-0.14379
-0.13566
-0.12696
-0.12406
-0.12171
-0.11824
-0.11881
-0.12111
-0.12168
-0.1211
-0.11821
-0.11181
-0.10834
-0.11295
-0.11645
-0.12226
-0.12572
-0.12514
-0.12105
-0.12046
-0.13786
-0.13555
-0.12799
-0.12568
-0.12683
-0.12509
-0.121
-0.11811
-0.11695
-0.11286
-0.11228
-0.11462
-0.11693
-0.11923
-0.12273
-0.12153
-0.12503
-0.13022
-0.12906
-0.13021
-0.14414
-0.13716
-0.12903
-0.12383
-0.12325
-0.12671
-0.12843
-0.12785
-0.12842
-0.12899
-0.12552
-0.12263
-0.12551
-0.12839
-0.13012
-0.12838
-0.12549
-0.12375
-0.12721
-0.13648
-0.151
-0.14113
-0.13185
-0.12891
-0.12718
-0.12717
-0.13067
-0.12947
-0.12946
-0.13123
-0.1318
-0.13122
-0.13002
-0.13063
-0.13293
-0.13351
-0.13581
-0.1358
-0.13233
-0.13988
-0.15319
-0.14621
-0.14621
-0.14389
-0.13576
-0.13114
-0.13575
-0.13921
-0.13574
-0.13516
-0.13746
-0.13803
-0.14153
-0.14268
-0.14441
-0.1444
-0.14209
-0.1415
-0.14438
-0.15597
-0.16932
-0.15538
-0.14263
-0.1345
-0.13622
-0.13973
-0.1391
-0.13736
-0.13851
-0.13677
-0.13619
-0.13969
-0.13849
-0.13848
-0.14371
-0.14025
-0.13966
-0.13966
-0.1373
-0.13787
-0.14426
-0.13035
-0.12045
-0.11525
-0.10885
-0.10303
-0.099558
-0.096089
-0.091998
-0.086221
-0.083285
-0.083279
-0.083273
-0.081536
-0.080953
-0.083256
-0.08325
-0.084399
-0.086746
-0.094865
-0.10645
-0.096585
-0.086723
-0.081478
-0.081473
-0.082621
-0.082615
-0.079724
-0.077409
-0.077403
-0.074467
-0.061719
-0.046041
-0.038487
-0.035019
-0.031505
-0.026882
-0.020483
-0.014128
-0.015277
-0.021043
-0.0094491
-0.0018956
0.0062351
0.011435
0.0079781
0.0033221
-0.0018668
-0.0082544
-0.014642
-0.020408
-0.018094
-0.015202
-0.016351
-0.01519
-0.0093684
-0.0041236
-0.001232
-0.0041121
-0.0093454
-0.019773
-0.011065
-0.0012032
0.0011113
-0.0011916
-0.0075793
-0.019161
-0.029012
-0.0354
-0.036548
-0.041782
-0.045816
-0.047542
-0.055661
-0.065512
-0.070168
-0.078287
-0.085829
-0.088709
-0.099714
-0.11827
-0.11422
-0.11364
-0.11594
-0.12175
-0.13276
-0.14376
-0.14842
-0.1449
-0.14721
-0.15533
-0.16171
-0.16402
-0.16579
-0.16458
-0.164
-0.1675
-0.17327
-0.17504
-0.18023
-0.19008
-0.18079
-0.17035
-0.16395
-0.16453
-0.16745
-0.16918
-0.16917
-0.16628
-0.16685
-0.16684
-0.16857
-0.17318
-0.17957
-0.17899
-0.17783
-0.18186
-0.18421
-0.18593
-0.19636
-0.2039
-0.1952
-0.19288
-0.19052
-0.19109
-0.19286
-0.19166
-0.1905
-0.19049
-0.19106
-0.1963
-0.19687
-0.19629
-0.19801
-0.20151
-0.20324
-0.19857
-0.2015
-0.20553
-0.21596
-0.22408
-0.21537
-0.20666
-0.19853
-0.19506
-0.19563
-0.19851
-0.19793
-0.19562
-0.19619
-0.19965
-0.19849
-0.19444
-0.19674
-0.2014
-0.20255
-0.19903
-0.19614
-0.19614
-0.20541
-0.21353
-0.20713
-0.199
-0.19264
-0.18913
-0.19143
-0.19782
-0.20132
-0.20536
-0.21348
-0.21636
-0.21231
-0.20533
-0.19836
-0.19431
-0.18849
-0.17401
-0.16295
-0.1589
-0.16236
-0.15832
-0.13105
-0.10201
-0.073009
-0.04925
-0.024292
0.006482
0.049421
0.096978
0.14804
0.20545
0.27215
0.33773
0.39456
0.45318
0.51698
0.57093
0.62488
0.67941
0.72235
0.78211
0.86333
0.9329
0.99152
1.035
1.0588
1.0542
1.0223
0.95443
0.82506
0.67078
0.53967
0.43295
0.33612
0.24795
0.17425
0.10757
0.043778
-0.014822
-0.084433
-0.14357
-0.18303
-0.22534
-0.26769
-0.29903
-0.32393
-0.34599
-0.35988
-0.36684
-0.36626
-0.35698
-0.33784
-0.31869
-0.30302
-0.28849
-0.27517
-0.26588
-0.25775
-0.25251
-0.2612
-0.26701
-0.26119
-0.25191
-0.24031
-0.22814
-0.21943
-0.21707
-0.21418
-0.20317
-0.19273
-0.17993
-0.17007
-0.16367
-0.16078
-0.15962
-0.16192
-0.15961
-0.15614
-0.15263
-0.16483
-0.16829
-0.15669
-0.14856
-0.14856
-0.15144
-0.14619
-0.14503
-0.14387
-0.14444
-0.14155
-0.13866
-0.13342
-0.1311
-0.13687
-0.13628
-0.13166
-0.13108
-0.13165
-0.13222
-0.14265
-0.14438
-0.13509
-0.12874
-0.12522
-0.12348
-0.11882
-0.11939
-0.12058
-0.11765
-0.11706
-0.11648
-0.11301
-0.11065
-0.11473
-0.11646
-0.11414
-0.10947
-0.10601
-0.10946
-0.12109
-0.117
-0.10598
-0.10074
-0.097846
-0.094954
-0.093217
-0.094366
-0.093206
-0.092001
-0.092573
-0.090835
-0.090829
-0.086783
-0.089664
-0.090812
-0.088498
-0.085606
-0.086177
-0.085017
-0.091361
-0.091932
-0.086732
-0.08091
-0.07975
-0.078589
-0.072767
-0.072762
-0.070447
-0.063471
-0.061156
-0.063459
-0.064608
-0.063448
-0.064019
-0.063436
-0.064585
-0.061693
-0.059956
-0.060527
-0.071532
-0.070372
-0.063973
-0.050648
-0.040786
-0.039048
-0.037844
-0.037261
-0.033215
-0.02797
-0.02681
-0.026227
-0.025067
-0.020976
-0.019816
-0.019233
-0.019228
-0.01749
-0.01633
-0.012861
-0.027907
-0.029055
-0.016884
-0.003559
0.0034173
0.0080849
0.0086678
0.010982
0.01565
0.023781
0.027249
0.028987
0.030724
0.031307
0.031313
0.034826
0.039449
0.042385
0.042391
0.04182
0.037741
0.05111
0.066167
0.074298
0.076612
0.078971
0.086525
0.096964
0.10101
0.10275
0.10568
0.11088
0.11613
0.11787
0.11903
0.12196
0.12601
0.12601
0.12544
0.12776
0.12199
0.13065
0.14926
0.16374
0.17014
0.17419
0.17597
0.17771
0.18291
0.19104
0.19686
0.19917
0.19976
0.20149
0.2027
0.20675
0.21079
0.21142
0.21431
0.21778
0.20389
0.21024
0.22477
0.23463
0.2381
0.23988
0.23931
0.24047
0.24394
0.2451
0.24279
0.24049
0.24223
0.24281
0.24397
0.24629
0.24514
0.2411
0.23472
0.22953
0.21617
0.21906
0.22315
0.22142
0.21908
0.21504
0.2075
0.19996
0.19184
0.18723
0.18026
0.17214
0.16287
0.15417
0.14432
0.13274
0.11881
0.10896
0.10026
0.089254
0.071279
0.0672
0.066051
0.063748
0.056206
0.04751
0.043475
0.036511
0.028969
0.022581
0.013885
0.006387
-0.0023093
-0.012204
-0.022632
-0.028975
-0.034209
-0.041174
-0.04987
-0.059143
-0.076542
-0.076536
-0.071291
-0.068977
-0.072434
-0.077667
-0.084055
-0.088089
-0.092168
-0.094471
-0.099083
-0.10201
-0.10431
-0.11128
-0.12055
-0.12401
-0.12285
-0.12342
-0.1275
-0.1298
-0.14023
-0.13498
-0.12863
-0.1292
-0.1315
-0.1315
-0.13207
-0.1361
-0.1361
-0.13844
-0.1419
-0.13959
-0.139
-0.13669
-0.13606
-0.13668
-0.13667
-0.13547
-0.13666
-0.14127
-0.15578
-0.1465
-0.13544
-0.13024
-0.13196
-0.13369
-0.13426
-0.13483
-0.13079
-0.1267
-0.12611
-0.12553
-0.1261
-0.1296
-0.13537
-0.13479
-0.13247
-0.13362
-0.13592
-0.13943
-0.15043
-0.13941
-0.12489
-0.12027
-0.12315
-0.12256
-0.12429
-0.12197
-0.12255
-0.12427
-0.126
-0.12426
-0.1231
-0.12718
-0.13121
-0.12832
-0.12716
-0.12773
-0.13061
-0.13234
-0.14277
-0.13814
-0.1329
-0.13058
-0.12769
-0.12418
-0.12187
-0.12128
-0.12012
-0.12069
-0.12357
-0.12241
-0.12241
-0.1224
-0.12471
-0.12412
-0.12354
-0.12296
-0.12584
-0.13107
-0.14092
-0.13337
-0.12408
-0.1183
-0.1171
-0.11652
-0.11363
-0.11362
-0.11477
-0.11534
-0.11649
-0.11475
-0.11359
-0.11763
-0.1194
-0.11997
-0.12169
-0.12169
-0.12168
-0.12691
-0.14023
-0.13325
-0.1257
-0.11934
-0.11934
-0.11698
-0.11409
-0.1135
-0.1135
-0.11465
-0.11815
-0.1193
-0.11814
-0.12275
-0.12741
-0.12562
-0.12158
-0.12157
-0.12561
-0.13199
-0.14358
-0.13545
-0.12616
-0.12211
-0.12211
-0.12095
-0.12037
-0.12209
-0.12035
-0.11742
-0.1215
-0.12495
-0.12437
-0.1209
-0.12321
-0.12609
-0.1255
-0.12843
-0.13073
-0.13534
-0.14524
-0.13826
-0.13359
-0.1307
-0.1307
-0.13127
-0.13011
-0.12721
-0.12428
-0.12485
-0.12835
-0.12835
-0.12599
-0.12425
-0.12717
-0.12659
-0.12596
-0.12658
-0.13235
-0.14162
-0.15262
-0.14045
-0.13405
-0.13001
-0.12654
-0.12711
-0.13057
-0.13114
-0.12767
-0.12709
-0.12997
-0.13169
-0.1375
-0.14038
-0.13922
-0.13922
-0.1369
-0.14036
-0.14382
-0.14963
-0.1589
-0.15077
-0.14557
-0.14148
-0.14032
-0.13974
-0.13858
-0.13973
-0.13741
-0.13505
-0.13913
-0.13913
-0.13797
-0.13738
-0.1368
-0.13444
-0.13386
-0.13039
-0.12634
-0.13096
-0.13734
-0.12633
-0.117
-0.10656
-0.094387
-0.087988
-0.086827
-0.084513
-0.079845
-0.074645
-0.075216
-0.072902
-0.069966
-0.066497
-0.068223
-0.072879
-0.075182
-0.07633
-0.077479
-0.083289
-0.085592
-0.076307
-0.073416
-0.068171
-0.067011
-0.067582
-0.069885
-0.066994
-0.060017
-0.054817
-0.046109
-0.035048
-0.02927
-0.027489
-0.02402
-0.015312
-0.0048726
-0.00078221
-0.0031296
-0.011249
-0.018169
-0.0019579
0.013143
0.016612
0.013155
0.0085432
0.0027327
-0.0036549
-0.01062
-0.016963
-0.01931
-0.014065
-0.011174
-0.010014
-0.0059233
-0.0001013
0.0045219
0.0033733
0.0010703
-0.0053173
-0.014591
-0.0058829
0.0045565
0.0045622
-0.0064428
-0.016294
-0.023835
-0.030223
-0.03368
-0.037759
-0.044103
-0.047604
-0.050484
-0.05514
-0.059752
-0.062055
-0.066711
-0.072522
-0.080019
-0.094532
-0.10727
-0.1038
-0.10264
-0.10845
-0.11652
-0.1206
-0.12233
-0.12521
-0.1316
-0.13798
-0.14379
-0.14668
-0.15129
-0.15825
-0.16175
-0.16113
-0.16174
-0.16404
-0.16346
-0.17331
-0.18259
-0.17272
-0.16748
-0.16632
-0.16107
-0.16169
-0.1663
-0.1686
-0.16687
-0.16455
-0.16282
-0.16454
-0.16742
-0.1715
-0.17207
-0.17784
-0.18192
-0.18191
-0.18306
-0.19291
-0.19699
-0.18766
-0.18477
-0.18418
-0.1836
-0.18129
-0.18301
-0.18705
-0.18762
-0.18881
-0.19169
-0.18822
-0.18822
-0.19168
-0.19051
-0.18993
-0.19223
-0.18934
-0.18934
-0.2015
-0.20673
-0.19336
-0.1835
-0.18407
-0.18637
-0.18348
-0.18463
-0.18405
-0.18231
-0.18404
-0.18518
-0.1846
-0.18575
-0.19329
-0.19329
-0.19155
-0.19097
-0.19096
-0.19384
-0.20254
-0.20426
-0.19555
-0.19093
-0.18684
-0.18453
-0.1851
-0.19148
-0.1961
-0.19551
-0.19786
-0.20247
-0.20247
-0.19491
-0.18736
-0.17865
-0.16648
-0.15489
-0.14267
-0.13574
-0.13689
-0.12467
-0.099183
-0.072494
-0.047536
-0.022001
0.0099271
0.045318
0.083596
0.12653
0.16828
0.21352
0.27213
0.33536
0.39105
0.44677
0.50765
0.56914
0.6353
0.70373
0.75075
0.80701
0.88298
0.94275
0.98396
1.0054
1.017
1.0101
0.97758
0.91783
0.79894
0.63596
0.49846
0.39173
0.2914
0.19746
0.11741
0.047223
-0.022388
-0.083874
-0.14998
-0.20334
-0.24627
-0.28689
-0.32457
-0.35241
-0.36634
-0.37153
-0.3634
-0.34772
-0.33613
-0.31987
-0.29842
-0.28217
-0.27115
-0.26417
-0.25835
-0.25373
-0.25141
-0.24905
-0.25198
-0.24212
-0.22355
-0.21076
-0.19974
-0.18873
-0.17767
-0.17189
-0.16549
-0.15851
-0.15216
-0.14749
-0.14402
-0.14748
-0.15387
-0.15444
-0.15035
-0.1463
-0.14918
-0.15268
-0.16311
-0.16018
-0.148
-0.13987
-0.13583
-0.13467
-0.13408
-0.13466
-0.13114
-0.12537
-0.12825
-0.13406
-0.13285
-0.12996
-0.13053
-0.12648
-0.12355
-0.12297
-0.12354
-0.12295
-0.134
-0.13458
-0.12529
-0.11658
-0.10787
-0.10729
-0.11248
-0.1119
-0.11016
-0.10842
-0.10606
-0.10606
-0.10432
-0.10201
-0.10604
-0.10781
-0.10838
-0.1066
-0.10544
-0.10601
-0.11648
-0.11182
-0.10195
-0.098486
-0.09555
-0.093812
-0.08799
-0.085099
-0.083361
-0.083933
-0.082195
-0.081035
-0.082184
-0.083333
-0.08275
-0.081589
-0.081007
-0.07807
-0.07691
-0.081566
-0.093149
-0.087327
-0.076887
-0.069911
-0.067019
-0.064128
-0.058883
-0.0583
-0.05714
-0.052472
-0.052466
-0.054237
-0.053076
-0.050718
-0.051289
-0.048397
-0.051278
-0.052426
-0.05242
-0.05126
-0.060534
-0.058796
-0.050089
-0.039072
-0.032096
-0.028627
-0.025114
-0.023376
-0.023371
-0.022788
-0.022205
-0.01989
-0.0158
-0.011754
-0.010016
-0.011165
-0.014045
-0.014617
-0.012302
-0.011142
-0.020993
-0.014016
-0.00069105
0.010947
0.019078
0.025433
0.029523
0.029529
0.028957
0.031272
0.033586
0.035324
0.041723
0.042883
0.043466
0.046402
0.048139
0.051608
0.056853
0.059167
0.050471
0.06091
0.074857
0.084142
0.094582
0.10156
0.1056
0.10854
0.11259
0.11548
0.12015
0.12885
0.13756
0.13872
0.13815
0.14513
0.14917
0.15499
0.16019
0.16135
0.15035
0.1579
0.17127
0.17998
0.18869
0.19677
0.20317
0.20842
0.2142
0.2154
0.21421
0.22003
0.2235
0.22586
0.22759
0.2328
0.23919
0.24502
0.24444
0.24037
0.22936
0.23865
0.24793
0.25548
0.25895
0.26131
0.26767
0.27118
0.27061
0.27119
0.27177
0.27524
0.27933
0.27756
0.27064
0.26772
0.26368
0.26138
0.26023
0.25269
0.23529
0.23876
0.24223
0.24343
0.23993
0.2359
0.23066
0.2249
0.21909
0.20751
0.19939
0.19358
0.18546
0.17503
0.16229
0.14951
0.14024
0.13154
0.11881
0.10602
0.08574
0.084592
0.084597
0.079941
0.072399
0.066056
0.056205
0.046932
0.03939
0.031271
0.024883
0.020849
0.01273
0.0034561
-0.0058174
-0.013359
-0.020324
-0.023204
-0.030169
-0.038288
-0.058573
-0.059144
-0.058561
-0.05971
-0.060858
-0.062051
-0.066086
-0.071319
-0.077085
-0.077079
-0.080004
-0.084038
-0.086918
-0.090997
-0.095609
-0.102
-0.1043
-0.10256
-0.10371
-0.10952
-0.12168
-0.11413
-0.10777
-0.10661
-0.11065
-0.11006
-0.10948
-0.11063
-0.11351
-0.11586
-0.11527
-0.11527
-0.11291
-0.11348
-0.11814
-0.12337
-0.12567
-0.12451
-0.12682
-0.12912
-0.13608
-0.12449
-0.11694
-0.11169
-0.11169
-0.11576
-0.11691
-0.11633
-0.11632
-0.11863
-0.12035
-0.11919
-0.11515
-0.11514
-0.12091
-0.12383
-0.12147
-0.12147
-0.12439
-0.12785
-0.13655
-0.12611
-0.11913
-0.11624
-0.1133
-0.10868
-0.10636
-0.10636
-0.10751
-0.11039
-0.11211
-0.11326
-0.11445
-0.11503
-0.11502
-0.11093
-0.10862
-0.11265
-0.12077
-0.12485
-0.13119
-0.12075
-0.11378
-0.108
-0.10506
-0.1039
-0.10332
-0.10389
-0.10624
-0.1097
-0.10969
-0.10564
-0.10328
-0.10621
-0.11433
-0.11894
-0.1172
-0.11196
-0.11022
-0.11603
-0.12588
-0.11717
-0.11193
-0.10846
-0.10322
-0.099169
-0.1009
-0.10262
-0.10262
-0.10088
-0.10434
-0.10668
-0.10552
-0.10432
-0.10724
-0.10551
-0.10315
-0.099677
-0.10025
-0.10779
-0.11937
-0.10893
-0.10196
-0.1008
-0.10368
-0.10252
-0.1002
-0.10077
-0.10077
-0.099031
-0.097871
-0.097288
-0.099014
-0.10016
-0.10655
-0.1077
-0.10476
-0.10476
-0.10595
-0.11287
-0.12157
-0.10824
-0.103
-0.10472
-0.10472
-0.10649
-0.1059
-0.10239
-0.10008
-0.10122
-0.1053
-0.10818
-0.10991
-0.11048
-0.11278
-0.11398
-0.11455
-0.11334
-0.11334
-0.1203
-0.13131
-0.12202
-0.11216
-0.10754
-0.10811
-0.10753
-0.10752
-0.1104
-0.10866
-0.1075
-0.10865
-0.10807
-0.10749
-0.11152
-0.11502
-0.11617
-0.11501
-0.11443
-0.11673
-0.12658
-0.13585
-0.12368
-0.11728
-0.11555
-0.11554
-0.11496
-0.11668
-0.1161
-0.11201
-0.1097
-0.11608
-0.11839
-0.11549
-0.11664
-0.11779
-0.11663
-0.11778
-0.11777
-0.11892
-0.13051
-0.14156
-0.134
-0.1276
-0.1224
-0.12586
-0.12643
-0.12119
-0.11483
-0.11305
-0.11886
-0.12352
-0.11943
-0.11942
-0.12408
-0.12522
-0.12464
-0.12464
-0.12636
-0.12924
-0.13909
-0.14548
-0.13446
-0.12864
-0.12748
-0.12459
-0.12401
-0.12285
-0.11991
-0.11702
-0.11759
-0.12225
-0.12282
-0.1257
-0.12685
-0.12742
-0.12857
-0.12798
-0.12682
-0.12682
-0.13667
-0.14306
-0.13377
-0.12506
-0.11924
-0.11635
-0.1111
-0.10764
-0.10355
-0.095459
-0.085553
-0.080352
-0.079769
-0.078032
-0.075096
-0.070473
-0.064074
-0.057675
-0.057092
-0.055354
-0.061742
-0.062891
-0.052451
-0.048938
-0.051285
-0.054743
-0.058777
-0.058771
-0.052994
-0.050679
-0.050673
-0.053554
-0.053548
-0.051811
-0.053536
-0.050023
-0.0454
-0.038424
-0.027407
-0.016968
-0.017539
-0.012294
0.0033842
0.015555
0.02484
0.027155
0.030668
0.034714
0.036451
0.032994
0.030114
0.024881
0.01907
0.014458
0.0063392
0.0028375
0.0022661
0.00054034
-0.0023398
-0.0017569
-0.012185
-0.010447
0.0081169
0.022641
0.030772
0.033086
0.030783
0.029013
0.027864
0.025561
0.022104
0.011055
0.0023583
-0.006338
-0.016189
-0.023109
-0.025456
-0.028337
-0.037033
-0.043998
-0.055003
-0.059037
-0.05326
-0.049746
-0.052094
-0.059636
-0.06367
-0.065396
-0.067699
-0.074087
-0.082206
-0.094365
-0.099021
-0.10306
-0.11117
-0.11756
-0.12337
-0.12625
-0.12798
-0.13494
-0.14946
-0.15349
-0.14594
-0.13958
-0.13665
-0.13664
-0.13433
-0.13547
-0.14071
-0.14705
-0.14882
-0.14589
-0.14473
-0.14645
-0.15342
-0.1563
-0.15571
-0.15455
-0.15805
-0.16209
-0.17483
-0.17717
-0.16673
-0.16091
-0.15975
-0.16205
-0.16436
-0.1667
-0.16843
-0.16958
-0.17073
-0.16841
-0.1661
-0.16547
-0.16782
-0.16839
-0.16954
-0.16838
-0.16837
-0.16952
-0.18284
-0.18403
-0.17705
-0.17238
-0.16949
-0.16602
-0.16717
-0.16832
-0.17005
-0.17004
-0.16946
-0.16888
-0.16478
-0.16598
-0.17232
-0.1764
-0.17346
-0.16769
-0.16826
-0.17056
-0.1833
-0.18214
-0.17285
-0.1665
-0.16591
-0.16764
-0.1659
-0.1647
-0.16412
-0.16526
-0.16646
-0.16818
-0.17106
-0.1763
-0.18091
-0.18032
-0.18205
-0.18555
-0.18612
-0.18496
-0.19015
-0.1751
-0.15591
-0.1397
-0.12575
-0.11531
-0.1066
-0.093812
-0.078755
-0.055529
-0.030571
-0.0079667
0.014105
0.042526
0.073255
0.11096
0.15159
0.19799
0.25078
0.30704
0.35637
0.42191
0.49211
0.55827
0.61915
0.6818
0.74272
0.79667
0.86456
0.93183
0.97419
1.0044
1.0194
1.023
1.0067
0.96552
0.88317
0.74278
0.58446
0.45856
0.34082
0.24572
0.17318
0.10939
0.043282
-0.01705
-0.075029
-0.13074
-0.18468
-0.23396
-0.28155
-0.31808
-0.33837
-0.34706
-0.35052
-0.34297
-0.33079
-0.31862
-0.3041
-0.289
-0.28726
-0.27158
-0.25479
-0.24316
-0.2356
-0.2304
-0.22924
-0.21818
-0.20077
-0.18975
-0.18278
-0.17469
-0.16598
-0.16132
-0.15376
-0.14448
-0.14043
-0.13519
-0.12999
-0.13287
-0.14676
-0.13925
-0.12646
-0.1189
-0.1137
-0.11019
-0.10961
-0.11018
-0.11017
-0.11017
-0.11194
-0.11073
-0.10899
-0.11072
-0.11538
-0.11479
-0.11248
-0.10839
-0.10896
-0.11011
-0.12347
-0.11822
-0.10894
-0.10254
-0.099646
-0.099641
-0.10137
-0.10251
-0.098469
-0.094423
-0.092641
-0.090904
-0.088589
-0.089161
-0.090887
-0.09319
-0.095537
-0.0938
-0.090864
-0.091435
-0.10479
-0.098394
-0.090263
-0.084441
-0.082127
-0.080967
-0.081538
-0.080955
-0.075755
-0.069356
-0.065843
-0.06526
-0.065831
-0.071064
-0.074522
-0.071053
-0.067584
-0.061762
-0.060602
-0.065791
-0.078572
-0.072173
-0.063465
-0.051871
-0.050134
-0.048973
-0.049545
-0.051848
-0.04718
-0.041403
-0.039044
-0.036152
-0.038455
-0.043688
-0.04426
-0.039592
-0.035546
-0.032654
-0.03438
-0.038415
-0.050619
-0.040756
-0.028541
-0.02041
-0.016364
-0.015204
-0.017507
-0.016924
-0.012834
-0.010519
-0.008782
-0.0087763
-0.0058846
-0.0047245
-0.0081818
-0.008176
-0.0081703
-0.006433
-0.0034969
-0.002914
-0.011033
-0.00059371
0.0058054
0.013315
0.018559
0.018565
0.022034
0.02497
0.026707
0.030176
0.033689
0.036004
0.041249
0.041254
0.037175
0.040644
0.041849
0.045318
0.048209
0.045906
0.035479
0.05058
0.066214
0.074344
0.077281
0.079595
0.086571
0.092349
0.097594
0.10399
0.10919
0.11093
0.11444
0.1156
0.11619
0.12316
0.12605
0.12837
0.13535
0.13944
0.12954
0.13945
0.14931
0.16033
0.17019
0.1789
0.18414
0.18646
0.18762
0.19748
0.20619
0.20677
0.20966
0.21491
0.21895
0.22131
0.2242
0.22594
0.23061
0.23292
0.22538
0.23524
0.24395
0.25381
0.25963
0.26195
0.26369
0.26547
0.26663
0.2701
0.2701
0.27477
0.27766
0.27767
0.2794
0.27768
0.27364
0.2748
0.28058
0.27712
0.26146
0.27017
0.2783
0.27888
0.27888
0.28004
0.27774
0.27371
0.2679
0.26382
0.26445
0.2621
0.25864
0.24994
0.23894
0.2314
0.22559
0.21631
0.20704
0.19253
0.17109
0.17225
0.17456
0.1688
0.15895
0.14674
0.13343
0.12589
0.12123
0.11431
0.10388
0.092833
0.081251
0.071977
0.066167
0.055739
0.045311
0.036037
0.027341
0.016913
-0.005147
-0.0074499
-0.0097529
-0.0097471
-0.0080098
-0.0080041
-0.0091527
-0.016695
-0.025391
-0.028271
-0.030618
-0.035807
-0.041041
-0.050891
-0.05901
-0.061891
-0.063616
-0.064765
-0.067112
-0.079849
-0.092008
-0.085076
-0.085071
-0.084488
-0.085636
-0.084476
-0.08447
-0.083887
-0.081529
-0.082677
-0.08791
-0.091945
-0.094869
-0.096018
-0.097744
-0.098892
-0.099464
-0.10412
-0.10758
-0.11396
-0.12266
-0.10698
-0.10001
-0.098846
-0.098841
-0.099412
-0.10114
-0.10349
-0.10348
-0.10232
-0.10289
-0.10519
-0.10403
-0.10345
-0.10229
-0.099354
-0.1005
-0.10458
-0.10573
-0.10803
-0.11327
-0.10167
-0.097582
-0.096422
-0.095839
-0.095256
-0.094673
-0.094668
-0.091154
-0.089417
-0.092342
-0.09349
-0.091709
-0.092902
-0.094627
-0.092313
-0.087068
-0.085331
-0.091674
-0.10446
-0.11431
-0.10213
-0.092273
-0.091645
-0.092261
-0.087593
-0.082926
-0.078303
-0.077143
-0.075405
-0.076554
-0.07828
-0.081737
-0.091588
-0.092203
-0.08869
-0.085799
-0.085793
-0.086364
-0.095638
-0.10318
-0.093317
-0.085187
-0.081674
-0.079936
-0.078199
-0.077616
-0.080496
-0.083998
-0.083415
-0.083986
-0.081627
-0.077581
-0.077576
-0.076416
-0.07641
-0.076404
-0.076398
-0.08101
-0.093791
-0.10306
-0.093202
-0.085072
-0.076941
-0.071696
-0.072845
-0.073416
-0.07341
-0.073405
-0.073399
-0.076323
-0.079203
-0.076312
-0.074574
-0.078032
-0.079758
-0.080906
-0.081478
-0.085556
-0.095407
-0.10002
-0.088425
-0.084379
-0.082597
-0.082014
-0.082586
-0.08258
-0.080843
-0.084344
-0.081408
-0.076208
-0.075048
-0.075042
-0.084316
-0.091236
-0.091852
-0.091225
-0.087179
-0.08371
-0.095292
-0.10514
-0.098166
-0.090036
-0.086567
-0.085407
-0.083669
-0.083086
-0.083658
-0.085384
-0.085378
-0.084795
-0.083635
-0.084783
-0.091748
-0.095783
-0.0952
-0.091731
-0.091104
-0.094605
-0.10792
-0.10969
-0.095165
-0.087612
-0.084143
-0.087023
-0.088749
-0.089897
-0.089892
-0.089886
-0.089303
-0.092227
-0.095108
-0.095102
-0.10149
-0.10379
-0.099702
-0.099119
-0.10204
-0.10088
-0.11073
-0.11592
-0.1026
-0.093313
-0.094461
-0.097341
-0.099067
-0.099061
-0.099056
-0.096741
-0.090342
-0.089182
-0.092106
-0.094409
-0.10253
-0.10541
-0.10713
-0.1054
-0.10135
-0.10423
-0.11524
-0.11816
-0.11292
-0.11002
-0.10593
-0.10304
-0.098375
-0.093751
-0.093169
-0.092008
-0.087918
-0.096614
-0.09834
-0.097757
-0.10761
-0.10996
-0.10937
-0.10701
-0.10528
-0.10469
-0.11512
-0.11627
-0.10583
-0.098854
-0.097117
-0.096534
-0.097682
-0.098254
-0.097094
-0.097088
-0.095928
-0.09419
-0.090677
-0.092447
-0.097636
-0.099362
-0.099356
-0.09531
-0.092996
-0.094144
-0.10746
-0.11327
-0.1098
-0.10513
-0.098733
-0.096418
-0.096413
-0.099293
-0.10222
-0.10048
-0.10221
-0.10335
-0.099264
-0.099258
-0.10795
-0.10853
-0.10563
-0.1039
-0.10274
-0.10912
-0.12302
-0.12128
-0.10911
-0.10271
-0.096886
-0.095726
-0.098029
-0.099177
-0.095709
-0.092817
-0.09108
-0.09396
-0.095686
-0.094525
-0.10091
-0.10552
-0.10148
-0.097388
-0.10031
-0.10377
-0.11478
-0.11362
-0.10491
-0.099085
-0.097348
-0.10143
-0.10431
-0.10603
-0.10776
-0.10544
-0.10313
-0.10255
-0.10081
-0.1008
-0.10368
-0.10137
-0.099588
-0.098427
-0.10193
-0.11005
-0.12336
-0.11816
-0.10826
-0.099547
-0.090262
-0.085639
-0.083902
-0.089091
-0.096055
-0.094318
-0.090228
-0.091421
-0.089639
-0.086747
-0.089627
-0.087313
-0.080914
-0.075713
-0.071623
-0.070463
-0.075696
-0.06872
-0.055394
-0.044333
-0.035048
-0.029848
-0.030997
-0.0333
-0.027478
-0.019391
-0.017033
-0.01645
-0.014712
-0.021677
-0.029796
-0.032099
-0.029785
-0.026849
-0.028042
-0.035539
-0.052938
-0.048314
-0.029173
-0.01638
-0.01522
-0.021031
-0.015786
-0.0053466
0.0039385
0.012646
0.019045
0.029485
0.03877
0.039353
0.03705
0.038787
0.044032
0.046346
0.042845
0.036502
0.021989
0.02084
0.026662
0.031863
0.032446
0.027257
0.023178
0.020298
0.019149
0.024927
0.034833
0.041765
0.045856
0.04817
0.045867
0.047605
0.052228
0.049925
0.044736
0.042966
0.029652
0.02211
0.018076
0.014574
0.0047231
-0.0039732
-0.0039675
-0.0045389
-0.0028016
-0.0051045
-0.010338
-0.014949
-0.021914
-0.028879
-0.036377
-0.042187
-0.04742
-0.052609
-0.058997
-0.067693
-0.089132
-0.096097
-0.093205
-0.089692
-0.090885
-0.093188
-0.097222
-0.097794
-0.10014
-0.10302
-0.10302
-0.10186
-0.10416
-0.10939
-0.114
-0.11573
-0.11865
-0.12153
-0.11922
-0.11628
-0.12849
-0.12906
-0.12554
-0.12034
-0.11803
-0.1186
-0.11917
-0.11744
-0.11565
-0.11623
-0.12261
-0.12492
-0.1226
-0.1226
-0.12783
-0.13244
-0.1371
-0.13709
-0.13939
-0.14694
-0.1591
-0.14923
-0.14283
-0.13648
-0.13181
-0.12892
-0.13007
-0.1353
-0.14107
-0.14164
-0.13586
-0.13119
-0.13119
-0.13527
-0.13757
-0.14103
-0.14102
-0.14102
-0.14216
-0.14393
-0.15956
-0.15493
-0.14623
-0.13925
-0.13578
-0.13635
-0.14154
-0.14211
-0.13634
-0.1346
-0.13575
-0.13459
-0.13107
-0.13688
-0.14092
-0.14033
-0.14091
-0.14263
-0.1496
-0.15425
-0.16468
-0.15309
-0.1438
-0.14668
-0.15596
-0.15999
-0.15537
-0.14377
-0.13271
-0.11939
-0.10717
-0.10313
-0.09908
-0.090372
-0.085704
-0.078151
-0.062472
-0.041599
-0.020149
0.00076839
0.012939
0.050639
0.097042
0.14695
0.19508
0.24442
0.30476
0.36684
0.42713
0.48921
0.54782
0.6035
0.65687
0.71606
0.77463
0.83786
0.91041
0.97768
1.0351
1.0647
1.0699
1.0786
1.0705
1.0398
0.9557
0.81066
0.65984
0.54268
0.44816
0.35475
0.27355
0.20572
0.1413
0.079816
0.020683
-0.034987
-0.084885
-0.13998
-0.19103
-0.23453
-0.27862
-0.29717
-0.30005
-0.29831
-0.296
-0.28902
-0.27334
-0.2542
-0.23621
-0.21592
-0.20313
-0.20139
-0.20196
-0.20253
-0.20426
-0.20194
-0.19093
-0.18049
-0.17409
-0.17235
-0.18336
-0.17061
-0.15027
-0.13113
-0.11722
-0.10443
-0.0963
-0.092254
-0.082392
-0.073684
-0.074833
-0.075404
-0.077707
-0.082363
-0.084666
-0.081197
-0.079415
-0.081763
-0.08118
-0.085792
-0.10088
-0.095636
-0.085197
-0.074181
-0.070667
-0.071283
-0.073586
-0.074157
-0.07242
-0.070638
-0.066592
-0.064855
-0.068312
-0.070038
-0.07061
-0.070027
-0.070598
-0.068861
-0.071785
-0.076397
-0.083939
-0.071768
-0.061861
-0.056084
-0.053148
-0.052565
-0.054912
-0.051399
-0.045621
-0.044461
-0.043834
-0.043828
-0.042091
-0.042662
-0.047318
-0.048467
-0.047307
-0.044415
-0.042056
-0.04729
-0.054832
-0.044392
-0.039147
-0.039719
-0.037404
-0.030428
-0.026382
-0.024023
-0.024595
-0.02228
-0.019966
-0.018228
-0.020531
-0.022257
-0.023406
-0.022245
-0.018777
-0.016995
-0.018188
-0.022222
-0.033227
-0.02745
-0.018165
-0.0082582
-0.00074915
0.0027641
0.0045014
0.0004225
0.0010498
0.0050959
0.0079875
0.0097692
0.010929
0.0091592
0.0051247
0.0080163
0.0085993
0.0074507
0.0086108
0.0028448
0.001119
0.019106
0.026615
0.024889
0.023164
0.020861
0.026638
0.035923
0.041168
0.042328
0.038871
0.045226
0.054555
0.051631
0.047019
0.050488
0.05631
0.058624
0.059784
0.058636
0.053402
0.065618
0.077789
0.086497
0.081308
0.076652
0.081319
0.089983
0.098113
0.10451
0.1074
0.10741
0.10511
0.10569
0.11151
0.11733
0.11614
0.11615
0.12428
0.12606
0.12256
0.13242
0.13997
0.14926
0.15335
0.15278
0.15855
0.16957
0.17655
0.18352
0.18935
0.19455
0.19921
0.19629
0.20211
0.20909
0.21256
0.21549
0.21665
0.21026
0.20503
0.21956
0.2323
0.24567
0.25496
0.25439
0.25382
0.2544
0.25383
0.25903
0.26427
0.26832
0.27414
0.27588
0.2817
0.28632
0.2881
0.29215
0.29797
0.28812
0.27765
0.28929
0.30319
0.3119
0.31541
0.31542
0.31715
0.32062
0.31947
0.32006
0.32473
0.32762
0.32416
0.31662
0.31489
0.31547
0.31375
0.30678
0.30097
0.28708
0.27954
0.28883
0.29172
0.28475
0.27721
0.27087
0.26737
0.25925
0.25348
0.25233
0.24248
0.23201
0.22158
0.20884
0.20188
0.19607
0.18506
0.1729
0.16248
0.14388
0.1271
0.12884
0.12942
0.12246
0.11607
0.11204
0.10507
0.094066
0.087102
0.080137
0.070863
0.06159
0.050008
0.037271
0.029729
0.022764
0.021616
0.022776
0.016965
0.00072125
-0.011438
-0.0079693
-0.0038789
0.0007443
-0.00098148
-0.0073247
-0.013712
-0.016015
-0.01601
-0.021243
-0.028785
-0.032242
-0.029928
-0.035161
-0.039195
-0.039767
-0.043268
-0.044994
-0.04672
-0.063541
-0.06873
-0.051897
-0.041458
-0.043805
-0.048994
-0.054805
-0.054222
-0.050131
-0.05128
-0.056513
-0.059393
-0.058233
-0.05765
-0.065769
-0.065186
-0.062872
-0.065175
-0.068055
-0.073288
-0.082562
-0.075585
-0.065146
-0.062832
-0.065712
-0.061666
-0.05873
-0.058724
-0.057564
-0.053518
-0.050582
-0.054083
-0.056963
-0.057535
-0.061037
-0.061608
-0.060403
-0.053472
-0.054043
-0.061008
-0.075476
-0.077202
-0.064454
-0.056323
-0.054586
-0.052271
-0.051067
-0.055723
-0.05514
-0.055711
-0.052819
-0.048729
-0.046415
-0.046986
-0.049866
-0.053945
-0.052785
-0.048694
-0.049266
-0.04926
-0.058534
-0.06319
-0.060254
-0.053899
-0.048654
-0.048071
-0.046334
-0.044597
-0.039352
-0.035306
-0.035877
-0.046305
-0.048608
-0.04283
-0.046288
-0.046282
-0.044545
-0.043962
-0.04511
-0.045105
-0.060772
-0.061343
-0.046819
-0.038111
-0.034065
-0.037522
-0.042134
-0.040397
-0.038659
-0.040962
-0.041534
-0.040374
-0.041522
-0.042715
-0.043864
-0.049053
-0.054863
-0.05428
-0.049035
-0.049607
-0.063542
-0.062959
-0.053674
-0.044966
-0.039144
-0.042024
-0.048412
-0.048406
-0.036235
-0.028105
-0.029253
-0.035064
-0.035635
-0.038515
-0.040241
-0.038504
-0.040807
-0.043731
-0.046611
-0.048914
-0.060541
-0.057028
-0.052982
-0.052399
-0.049463
-0.047725
-0.052959
-0.055839
-0.052947
-0.04828
-0.043079
-0.041297
-0.044799
-0.045948
-0.048828
-0.049399
-0.048239
-0.050542
-0.055775
-0.052884
-0.05865
-0.05749
-0.050513
-0.044736
-0.038337
-0.038331
-0.044141
-0.047599
-0.048747
-0.051672
-0.053398
-0.052237
-0.051033
-0.054535
-0.057992
-0.059141
-0.066105
-0.067254
-0.062054
-0.060316
-0.071898
-0.070738
-0.064339
-0.058517
-0.05678
-0.053311
-0.052151
-0.055031
-0.05618
-0.056174
-0.0579
-0.060824
-0.056157
-0.057305
-0.063693
-0.064264
-0.062527
-0.059014
-0.057276
-0.059579
-0.073515
-0.071777
-0.064224
-0.057825
-0.059551
-0.057236
-0.05319
-0.048523
-0.047362
-0.048511
-0.05259
-0.05547
-0.05431
-0.056036
-0.060692
-0.062995
-0.058904
-0.05659
-0.058893
-0.064126
-0.079216
-0.074548
-0.068149
-0.063526
-0.060057
-0.058275
-0.055961
-0.055955
-0.056526
-0.055366
-0.057092
-0.060017
-0.056503
-0.057652
-0.062308
-0.061148
-0.059366
-0.061136
-0.062862
-0.065165
-0.077946
-0.074433
-0.068034
-0.061679
-0.058166
-0.057006
-0.056423
-0.052377
-0.050018
-0.054097
-0.057554
-0.058125
-0.056388
-0.053496
-0.054645
-0.052908
-0.055211
-0.062753
-0.066787
-0.069712
-0.081294
-0.078979
-0.070849
-0.061564
-0.060981
-0.062707
-0.063278
-0.061541
-0.05745
-0.055136
-0.056862
-0.05801
-0.057427
-0.062083
-0.07078
-0.07366
-0.071922
-0.067832
-0.066095
-0.069019
-0.08291
-0.073625
-0.06434
-0.058518
-0.055049
-0.052158
-0.049799
-0.048639
-0.049787
-0.054443
-0.057323
-0.059049
-0.060819
-0.061968
-0.066003
-0.064265
-0.064259
-0.064254
-0.065979
-0.070636
-0.086302
-0.076973
-0.064802
-0.058403
-0.056088
-0.057237
-0.056654
-0.052608
-0.050871
-0.050865
-0.047352
-0.040375
-0.037484
-0.02993
-0.023576
-0.019485
-0.016016
-0.011349
-0.010766
-0.014845
-0.026427
-0.015987
-0.0037722
0.0020054
0.0084045
0.010142
0.0078389
0.0084218
0.009582
0.0095877
0.0090163
0.010176
0.011337
0.0067249
-0.0025486
-0.0048516
-0.0025371
-0.0031085
-0.00021687
0.0020976
-0.0071759
0.0038851
0.020096
0.033466
0.045637
0.059007
0.069446
0.074646
0.07816
0.085713
0.092068
0.093272
0.092079
0.084005
0.078771
0.081086
0.07936
0.07355
0.06543
0.057356
0.040534
0.043426
0.044586
0.050408
0.059116
0.068978
0.079418
0.086971
0.088131
0.08756
0.086988
0.087571
0.082338
0.081767
0.08235
0.077161
0.068465
0.054529
0.044678
0.042376
0.026709
0.024983
0.026143
0.027303
0.028463
0.030201
0.029052
0.022132
0.01459
0.0099335
0.0029687
-0.0039517
-0.0080306
-0.015573
-0.026578
-0.03412
-0.037
-0.041656
-0.049153
-0.061357
-0.075825
-0.070625
-0.067112
-0.067728
-0.065946
-0.070025
-0.075791
-0.072899
-0.068276
-0.070579
-0.074036
-0.072876
-0.069984
-0.071133
-0.076943
-0.078669
-0.076932
-0.079812
-0.082115
-0.087348
-0.10239
-0.096616
-0.08964
-0.083241
-0.083235
-0.089622
-0.090194
-0.085571
-0.083212
-0.084937
-0.092479
-0.09829
-0.098861
-0.10001
-0.10409
-0.10697
-0.10639
-0.1058
-0.10637
-0.11392
-0.12723
-0.11795
-0.10751
-0.098221
-0.095906
-0.097055
-0.098781
-0.10051
-0.10459
-0.10458
-0.10222
-0.099906
-0.098169
-0.10047
-0.10455
-0.10219
-0.097569
-0.09814
-0.10102
-0.11145
-0.12365
-0.11028
-0.10042
-0.094642
-0.094637
-0.091701
-0.09054
-0.091689
-0.091106
-0.091678
-0.095756
-0.096328
-0.093969
-0.096316
-0.098619
-0.10208
-0.10616
-0.11543
-0.12586
-0.13513
-0.14036
-0.12238
-0.10497
-0.088711
-0.075918
-0.068987
-0.062587
-0.055611
-0.049212
-0.040548
-0.02487
-0.0045298
0.018652
0.044187
0.065637
0.094102
0.13527
0.18633
0.23619
0.28206
0.3389
0.41199
0.47757
0.5396
0.60576
0.66552
0.72005
0.77862
0.83199
0.89757
0.96715
1.0286
1.0867
1.1273
1.1499
1.1551
1.136
1.0896
0.99157
0.82917
0.67778
0.58148
0.49447
0.39937
0.31702
0.24448
0.17313
0.11631
0.067609
0.014825
-0.036805
-0.08728
-0.13367
-0.17078
-0.19977
-0.22356
-0.24154
-0.25081
-0.2572
-0.26705
-0.26123
-0.23223
-0.20381
-0.18
-0.16375
-0.15446
-0.14811
-0.14055
-0.13882
-0.14112
-0.14285
-0.14399
-0.14053
-0.13759
-0.13124
-0.12253
-0.11555
-0.108
-0.096404
-0.094666
-0.094083
-0.075475
-0.063881
-0.057482
-0.049396
-0.047614
-0.049384
-0.047602
-0.044133
-0.043551
-0.048162
-0.049932
-0.049927
-0.049921
-0.043522
-0.043516
-0.040047
-0.037688
-0.042344
-0.055658
-0.064354
-0.051606
-0.038814
-0.034191
-0.031299
-0.028363
-0.028357
-0.026043
-0.022574
-0.022568
-0.021985
-0.020203
-0.021352
-0.024854
-0.025425
-0.021956
-0.019597
-0.019014
-0.019009
-0.030591
-0.035824
-0.026539
-0.018408
-0.010855
-0.0079633
-0.010843
-0.011992
-0.010255
-0.0096718
-0.0090888
-0.0085059
-0.005037
-0.00094662
-0.0020952
-0.0032438
-0.00092933
0.00080797
0.0013909
0.0019739
-0.0090312
-0.01311
-0.0055566
-0.00031181
0.0025798
0.0060931
0.0084076
0.0084133
0.011305
0.015395
0.020596
0.021179
0.020607
0.020036
0.020042
0.021779
0.025869
0.028761
0.02819
0.027618
0.018345
0.015465
0.02475
0.030527
0.032309
0.034046
0.034052
0.034635
0.038681
0.042194
0.044509
0.043937
0.045097
0.045103
0.042223
0.047423
0.054977
0.059067
0.059073
0.054994
0.046298
0.049767
0.060828
0.065451
0.067188
0.071279
0.075325
0.075907
0.079998
0.084044
0.083473
0.083478
0.088146
0.091615
0.09162
0.091626
0.095139
0.098608
0.10208
0.10208
0.092232
0.095745
0.10965
0.11836
0.12245
0.1288
0.13231
0.1329
0.13987
0.14277
0.14623
0.15032
0.15903
0.16366
0.16308
0.1654
0.17007
0.17704
0.17878
0.18052
0.17533
0.18053
0.19448
0.20376
0.21131
0.2206
0.22873
0.23047
0.23163
0.23336
0.23803
0.24323
0.24439
0.24675
0.24907
0.2572
0.26067
0.26183
0.26649
0.26708
0.26011
0.26127
0.27349
0.28681
0.29956
0.30423
0.30481
0.30308
0.30425
0.31122
0.3182
0.32224
0.32225
0.32456
0.32284
0.32751
0.33097
0.33444
0.33738
0.33854
0.32811
0.32576
0.33216
0.33506
0.33218
0.33627
0.33916
0.33685
0.33744
0.3386
0.33918
0.33745
0.33222
0.32641
0.3218
0.31892
0.31657
0.30965
0.30038
0.29106
0.27251
0.26501
0.2679
0.26733
0.2621
0.25513
0.24706
0.23894
0.23082
0.22501
0.21573
0.2018
0.19546
0.18791
0.17456
0.16182
0.15139
0.14154
0.134
0.12357
0.10324
0.10036
0.10268
0.10326
0.098071
0.091683
0.082409
0.076599
0.07141
0.0656
0.060988
0.056909
0.054029
0.046487
0.037791
0.031403
0.023906
0.016364
0.012862
0.007673
-0.010303
-0.0085653
-0.0021662
-0.00042889
-0.0010003
-0.0033477
-0.0091137
-0.012038
-0.01261
-0.013181
-0.013752
-0.015478
-0.013164
-0.015467
-0.021277
-0.02358
-0.025306
-0.026455
-0.032265
-0.037454
-0.053121
-0.049075
-0.036282
-0.032236
-0.034539
-0.032225
-0.031642
-0.033367
-0.032784
-0.033356
-0.031041
-0.032767
-0.033916
-0.035064
-0.037945
-0.036784
-0.032738
-0.032155
-0.034458
-0.040846
-0.053583
-0.048959
-0.041983
-0.037893
-0.034424
-0.033841
-0.036144
-0.032675
-0.033246
-0.032086
-0.029772
-0.029766
-0.029139
-0.030332
-0.036098
-0.030897
-0.02623
-0.024492
-0.025064
-0.030297
-0.047074
-0.045914
-0.037206
-0.029075
-0.023875
-0.02156
-0.018624
-0.018619
-0.020389
-0.023269
-0.026726
-0.024412
-0.022674
-0.026709
-0.031365
-0.031359
-0.026692
-0.026686
-0.027257
-0.027252
-0.039455
-0.031902
-0.023771
-0.019104
-0.016212
-0.016783
-0.0162
-0.017926
-0.016766
-0.015606
-0.016755
-0.019635
-0.017897
-0.017314
-0.023125
-0.021965
-0.023691
-0.026571
-0.025411
-0.025982
-0.036987
-0.032941
-0.027696
-0.023073
-0.017828
-0.013782
-0.010269
-0.011462
-0.016074
-0.013759
-0.010823
-0.010817
-0.014319
-0.017776
-0.018348
-0.018342
-0.020112
-0.020106
-0.019479
-0.024712
-0.043265
-0.036289
-0.023541
-0.014833
-0.013673
-0.014821
-0.016547
-0.01885
-0.018267
-0.015375
-0.013638
-0.014787
-0.015935
-0.020014
-0.024049
-0.024043
-0.022883
-0.02634
-0.028066
-0.032722
-0.044881
-0.038527
-0.032128
-0.028614
-0.026877
-0.022831
-0.022825
-0.025128
-0.022237
-0.020499
-0.022802
-0.025105
-0.024522
-0.025671
-0.030904
-0.033784
-0.036664
-0.032041
-0.028528
-0.034915
-0.050005
-0.042452
-0.034898
-0.030852
-0.031424
-0.031418
-0.030835
-0.030252
-0.035441
-0.037167
-0.034852
-0.03196
-0.029069
-0.02964
-0.035983
-0.038908
-0.040057
-0.03712
-0.03596
-0.044079
-0.05686
-0.04873
-0.03829
-0.031314
-0.031308
-0.03188
-0.035337
-0.038839
-0.037057
-0.036474
-0.037667
-0.034154
-0.034725
-0.039959
-0.043416
-0.042256
-0.04225
-0.042244
-0.041661
-0.045696
-0.056745
-0.049769
-0.042793
-0.035816
-0.030039
-0.029456
-0.03349
-0.035216
-0.036365
-0.037558
-0.03693
-0.03577
-0.036342
-0.039843
-0.043301
-0.042141
-0.043866
-0.043861
-0.045009
-0.047934
-0.05663
-0.050231
-0.04614
-0.040363
-0.03978
-0.041506
-0.043809
-0.042071
-0.040334
-0.042637
-0.04494
-0.047864
-0.044928
-0.047276
-0.050156
-0.046687
-0.046681
-0.04783
-0.050133
-0.057675
-0.068103
-0.056509
-0.05011
-0.045442
-0.042551
-0.043122
-0.046624
-0.047195
-0.044259
-0.042522
-0.041939
-0.041933
-0.042504
-0.041922
-0.040761
-0.042487
-0.045367
-0.047137
-0.046555
-0.054629
-0.065102
-0.052886
-0.043024
-0.04071
-0.040127
-0.034882
-0.030259
-0.025014
-0.01746
-0.012837
-0.0087467
-0.0011932
0.0080918
0.013292
0.016184
0.017388
0.019703
0.022595
0.027262
0.019143
0.0046304
0.016846
0.024355
0.025559
0.025565
0.024372
0.027308
0.030777
0.031937
0.031943
0.031949
0.027914
0.02499
0.02211
0.022115
0.026206
0.030252
0.037805
0.04709
0.049982
0.048256
0.067975
0.081922
0.088898
0.092367
0.09699
0.10223
0.10166
0.10167
0.10572
0.10284
0.097025
0.084865
0.0779
0.076175
0.073872
0.069216
0.066336
0.066341
0.062307
0.057651
0.073329
0.084923
0.093054
0.099453
0.10061
0.097111
0.097117
0.10121
0.10352
0.099487
0.091945
0.081517
0.068159
0.060617
0.058891
0.052504
0.048469
0.042082
0.026459
0.014255
0.024118
0.027631
0.029945
0.030528
0.024718
0.015444
0.0079024
0.00098205
-0.00074373
-0.0019367
-0.0077028
-0.014668
-0.02625
-0.039031
-0.044797
-0.05003
-0.055263
-0.057566
-0.06684
-0.07669
-0.065097
-0.057543
-0.052876
-0.051716
-0.05464
-0.05752
-0.059823
-0.060972
-0.061543
-0.06389
-0.063885
-0.066188
-0.071954
-0.074301
-0.073718
-0.071936
-0.075438
-0.08298
-0.093985
-0.09802
-0.086426
-0.081803
-0.080021
-0.077707
-0.078855
-0.083511
-0.085814
-0.084654
-0.081762
-0.082911
-0.082328
-0.085785
-0.08982
-0.09159
-0.092161
-0.089225
-0.08922
-0.092721
-0.10661
-0.11358
-0.099675
-0.092121
-0.089185
-0.089756
-0.090949
-0.090367
-0.090938
-0.089733
-0.090349
-0.094384
-0.092069
-0.08971
-0.094366
-0.097824
-0.093778
-0.090309
-0.091457
-0.094338
-0.1077
-0.11173
-0.10302
-0.094892
-0.090846
-0.091417
-0.091411
-0.094292
-0.096017
-0.097166
-0.091966
-0.091383
-0.091954
-0.096566
-0.10699
-0.1128
-0.11395
-0.11337
-0.11048
-0.10639
-0.10758
-0.10407
-0.083771
-0.068093
-0.055922
-0.045483
-0.03269
-0.019942
-0.0048408
0.016609
0.042721
0.064216
0.085666
0.11933
0.15472
0.19881
0.24406
0.29104
0.34792
0.40937
0.46101
0.51669
0.58863
0.6594
0.72498
0.78706
0.84736
0.90886
0.98079
1.0423
1.0928
1.1223
1.1351
1.1334
1.1055
1.0545
0.95011
0.79117
0.64271
0.5354
0.42516
0.32541
0.25695
0.19258
0.1247
0.063258
0.0040802
-0.050435
-0.10149
-0.15196
-0.19662
-0.23373
-0.25806
-0.26853
-0.27083
-0.26559
-0.25515
-0.23658
-0.21687
-0.20061
-0.2006
-0.19074
-0.17333
-0.15939
-0.15188
-0.15009
-0.14489
-0.13503
-0.12455
-0.11704
-0.10949
-0.10366
-0.097265
-0.088557
-0.083934
-0.078112
-0.071757
-0.064204
-0.058959
-0.05256
-0.060679
-0.060096
-0.050234
-0.046765
-0.045605
-0.043246
-0.042086
-0.043234
-0.041497
-0.03976
-0.040331
-0.04148
-0.039165
-0.040891
-0.043194
-0.042034
-0.039719
-0.037405
-0.037399
-0.038548
-0.053637
-0.053632
-0.042571
-0.033863
-0.027508
-0.024572
-0.022257
-0.02456
-0.026908
-0.022817
-0.02108
-0.02396
-0.023954
-0.022217
-0.022789
-0.01932
-0.016384
-0.019308
-0.020457
-0.021028
-0.031456
-0.029142
-0.018125
-0.0099943
-0.0059039
-0.0047438
-0.0076239
-0.0093941
-0.0070352
-0.00010329
0.0011012
-0.0024005
0.0011128
0.00054134
-0.0058463
-0.0046861
0.001713
0.0046047
0.0080735
0.010432
-0.0023486
-0.0017657
0.0086737
0.014496
0.015079
0.017393
0.019175
0.020335
0.023227
0.029626
0.034249
0.034255
0.035415
0.035421
0.031963
0.033123
0.033706
0.035444
0.034872
0.033146
0.020987
0.023302
0.034318
0.043603
0.049425
0.05174
0.05583
0.062185
0.063966
0.061619
0.059316
0.061631
0.066298
0.06515
0.060494
0.061654
0.065744
0.06979
0.070373
0.066339
0.055333
0.060534
0.07155
0.083189
0.086657
0.084932
0.08436
0.088983
0.095383
0.098851
0.10179
0.1041
0.1105
0.11282
0.10994
0.1134
0.11692
0.12039
0.12155
0.12386
0.11574
0.12156
0.13373
0.14187
0.14653
0.15116
0.15352
0.15698
0.16511
0.16801
0.16859
0.17153
0.17903
0.18428
0.18602
0.18953
0.19531
0.19882
0.19825
0.19768
0.19014
0.19942
0.21448
0.23016
0.24353
0.24988
0.25339
0.25571
0.26095
0.27255
0.28183
0.28068
0.27896
0.28069
0.28359
0.28941
0.29288
0.29519
0.29755
0.29986
0.28886
0.29584
0.30685
0.31787
0.32369
0.32543
0.32717
0.33241
0.33934
0.34459
0.34402
0.34229
0.34576
0.34807
0.34808
0.34635
0.34578
0.34521
0.34753
0.34695
0.33071
0.33422
0.34235
0.34813
0.35164
0.3505
0.34815
0.347
0.34585
0.33889
0.33197
0.32442
0.31804
0.3128
0.30819
0.30238
0.29426
0.28441
0.27283
0.25947
0.23803
0.23804
0.23804
0.23343
0.22647
0.2195
0.20965
0.20038
0.19284
0.18183
0.16963
0.16035
0.15459
0.14705
0.13369
0.12268
0.11399
0.10587
0.097171
0.085589
0.064727
0.067619
0.07051
0.068207
0.064173
0.057208
0.049089
0.042701
0.037513
0.029971
0.023006
0.020126
0.016624
0.0056189
-0.0065405
-0.012351
-0.011768
-0.0088764
-0.0077162
-0.013482
-0.032612
-0.030298
-0.027983
-0.02447
-0.024464
-0.026812
-0.026229
-0.0268
-0.030835
-0.029674
-0.030246
-0.033126
-0.036051
-0.040085
-0.048204
-0.054592
-0.058626
-0.056889
-0.054575
-0.059763
-0.07139
-0.061528
-0.053397
-0.051615
-0.053386
-0.049872
-0.045826
-0.043512
-0.042307
-0.045809
-0.051575
-0.0545
-0.050986
-0.053334
-0.057945
-0.053899
-0.049809
-0.056774
-0.060853
-0.063733
-0.074161
-0.065453
-0.055591
-0.053276
-0.057311
-0.054996
-0.053259
-0.056139
-0.054979
-0.053242
-0.049728
-0.046837
-0.045099
-0.046825
-0.05379
-0.05667
-0.054356
-0.051419
-0.050837
-0.055493
-0.067075
-0.059521
-0.052589
-0.048499
-0.047916
-0.047333
-0.044441
-0.04266
-0.0415
-0.04034
-0.041488
-0.04206
-0.041477
-0.044978
-0.047281
-0.046121
-0.04727
-0.048418
-0.047835
-0.051293
-0.064074
-0.055943
-0.049544
-0.044921
-0.041407
-0.041979
-0.041396
-0.037927
-0.03619
-0.035607
-0.037333
-0.035018
-0.033858
-0.036738
-0.039618
-0.038458
-0.038452
-0.04191
-0.042481
-0.048292
-0.059874
-0.050012
-0.040149
-0.034949
-0.036098
-0.041286
-0.041858
-0.040698
-0.041269
-0.040686
-0.04068
-0.040675
-0.039515
-0.041818
-0.045319
-0.044159
-0.042999
-0.044148
-0.045873
-0.052261
-0.060957
-0.053404
-0.048159
-0.042959
-0.041177
-0.043524
-0.044096
-0.04409
-0.038268
-0.032446
-0.034216
-0.037674
-0.039399
-0.044055
-0.045204
-0.044621
-0.045192
-0.04461
-0.045181
-0.0533
-0.064305
-0.055597
-0.05093
-0.045729
-0.045146
-0.049181
-0.049752
-0.048015
-0.046855
-0.046849
-0.049152
-0.049723
-0.048563
-0.048558
-0.050283
-0.049123
-0.047386
-0.050266
-0.053768
-0.061887
-0.073469
-0.065338
-0.059517
-0.052007
-0.050226
-0.050797
-0.051413
-0.051984
-0.051979
-0.050197
-0.05139
-0.050185
-0.049602
-0.052527
-0.05483
-0.05771
-0.062943
-0.06236
-0.061777
-0.066966
-0.074508
-0.0658
-0.060023
-0.055932
-0.051886
-0.051303
-0.054761
-0.056487
-0.057058
-0.058784
-0.062285
-0.06228
-0.06516
-0.075011
-0.076736
-0.067451
-0.059942
-0.060514
-0.063394
-0.070936
-0.080786
-0.073233
-0.065679
-0.061056
-0.062205
-0.063931
-0.062193
-0.059879
-0.06045
-0.060444
-0.061593
-0.060433
-0.061581
-0.064462
-0.067342
-0.067913
-0.069683
-0.071409
-0.070249
-0.076592
-0.083557
-0.074849
-0.072535
-0.071952
-0.06906
-0.069054
-0.069049
-0.06669
-0.063221
-0.060906
-0.061478
-0.062626
-0.063198
-0.066078
-0.068381
-0.069574
-0.0713
-0.070717
-0.071865
-0.08287
-0.089258
-0.079396
-0.072419
-0.066597
-0.063706
-0.066009
-0.068933
-0.068928
-0.06426
-0.063677
-0.06598
-0.067129
-0.066546
-0.070047
-0.074082
-0.07523
-0.07407
-0.071756
-0.067665
-0.072899
-0.074624
-0.063608
-0.054323
-0.045615
-0.03633
-0.029931
-0.025885
-0.018908
-0.012509
-0.0073089
-0.006726
-0.0049443
-0.0026298
-0.0020468
-0.0014639
-0.0020353
0.0020107
0.0043696
0.00086786
-0.014799
-0.021719
-0.010126
-0.0031493
0.00089668
0.0044099
0.0049929
0.0038443
-0.00023463
0.00034831
0.0050159
0.011371
0.019501
0.024169
0.026483
0.032883
0.042745
0.053184
0.06016
0.064207
0.056665
0.054362
0.067154
0.074086
0.072937
0.071212
0.073526
0.070646
0.069497
0.067194
0.061961
0.05211
0.04923
0.052122
0.050973
0.052134
0.05618
0.059116
0.06143
0.061436
0.057979
0.061447
0.074817
0.081172
0.080023
0.07772
0.077149
0.069607
0.059179
0.052791
0.046981
0.03713
0.029011
0.020315
0.011041
0.0098927
0.0093213
0.0058639
0.0012079
-0.0028266
-0.021957
-0.028344
-0.02603
-0.026601
-0.02775
-0.028898
-0.031778
-0.038743
-0.045708
-0.052096
-0.057285
-0.060209
-0.063666
-0.065969
-0.074088
-0.082208
-0.08975
-0.093207
-0.092624
-0.093195
-0.10367
-0.10189
-0.092024
-0.089132
-0.089126
-0.086812
-0.08796
-0.094925
-0.09896
-0.098954
-0.099525
-0.098365
-0.097205
-0.097777
-0.10297
-0.10704
-0.10762
-0.10876
-0.11049
-0.11399
-0.125
-0.12441
-0.11801
-0.11512
-0.11219
-0.1116
-0.11102
-0.11217
-0.11509
-0.11393
-0.10984
-0.11215
-0.11156
-0.11156
-0.11852
-0.12083
-0.12082
-0.12144
-0.12258
-0.12489
-0.13762
-0.13531
-0.12776
-0.12313
-0.1202
-0.11904
-0.12312
-0.12311
-0.11902
-0.1167
-0.11381
-0.11727
-0.11669
-0.1161
-0.12249
-0.1248
-0.12479
-0.12305
-0.12305
-0.12535
-0.13986
-0.14043
-0.13288
-0.12302
-0.11835
-0.12008
-0.12185
-0.12184
-0.12064
-0.12005
-0.12471
-0.13341
-0.13802
-0.13743
-0.13396
-0.1241
-0.11424
-0.10669
-0.097402
-0.092734
-0.09739
-0.083444
-0.061993
-0.03819
-0.011501
0.013457
0.037793
0.063905
0.094679
0.13296
0.1759
0.21821
0.26408
0.31626
0.37429
0.43694
0.49844
0.56225
0.62259
0.68
0.72876
0.79141
0.85983
0.93354
0.99384
1.0409
1.0676
1.0768
1.0768
1.0513
1.0003
0.90109
0.74969
0.60469
0.49042
0.38427
0.28682
0.20735
0.13836
0.070483
-0.0020141
-0.053067
-0.096571
-0.14642
-0.19228
-0.23459
-0.26824
-0.29203
-0.29895
-0.29779
-0.29143
-0.27518
-0.25661
-0.24094
-0.22819
-0.21193
-0.19856
-0.19043
-0.18754
-0.1858
-0.1945
-0.18579
-0.17069
-0.15736
-0.1475
-0.13702
-0.12716
-0.1196
-0.11325
-0.10103
-0.092902
-0.088279
-0.08188
-0.079566
-0.0836
-0.083594
-0.077817
-0.075458
-0.077805
-0.084148
-0.098661
-0.092262
-0.080668
-0.072537
-0.071377
-0.070794
-0.069634
-0.068474
-0.064384
-0.062069
-0.062641
-0.062058
-0.062052
-0.066086
-0.070165
-0.066652
-0.067845
-0.071302
-0.069565
-0.069559
-0.081719
-0.075941
-0.062571
-0.052132
-0.050395
-0.049812
-0.048607
-0.04687
-0.043978
-0.043973
-0.042235
-0.04223
-0.043378
-0.043372
-0.041058
-0.041052
-0.042201
-0.043349
-0.045075
-0.046801
-0.058427
-0.04972
-0.041589
-0.036921
-0.032875
-0.032292
-0.031132
-0.030505
-0.030499
-0.031115
-0.031686
-0.026442
-0.021774
-0.021191
-0.022961
-0.024687
-0.025258
-0.022944
-0.022938
-0.026973
-0.037978
-0.024075
-0.0083969
-0.0014205
0.00089394
0.0032084
0.0032142
-0.0013975
-0.0019689
0.0020771
0.0038144
0.0043974
0.0038259
0.001523
-0.00077998
0.0026889
0.0073565
0.0096709
0.011408
0.005065
-0.0094475
0.0021463
0.012586
0.018408
0.020145
0.020728
0.023087
0.026556
0.033532
0.037001
0.035852
0.033549
0.032978
0.034715
0.034721
0.036458
0.038773
0.04344
0.048063
0.04576
0.033024
0.044618
0.056789
0.065496
0.071896
0.072479
0.070753
0.07249
0.077735
0.082935
0.084095
0.088763
0.092232
0.088774
0.088203
0.091095
0.095185
0.10212
0.10736
0.10679
0.094631
0.11026
0.12133
0.12941
0.13754
0.14163
0.14337
0.1567
0.1666
0.16661
0.16484
0.17008
0.17879
0.18461
0.18981
0.19275
0.19449
0.19565
0.19796
0.19739
0.18869
0.20437
0.2212
0.23107
0.24035
0.24555
0.24733
0.25023
0.25547
0.26125
0.26592
0.27112
0.27463
0.27637
0.27695
0.28042
0.28509
0.28971
0.29087
0.28914
0.2816
0.29324
0.30252
0.31008
0.31586
0.32283
0.32515
0.32693
0.32982
0.33271
0.33156
0.33099
0.33446
0.331
0.32577
0.32404
0.32636
0.32521
0.32118
0.31306
0.3009
0.31018
0.31769
0.32178
0.32063
0.31598
0.30906
0.30151
0.29513
0.28932
0.2812
0.27428
0.26616
0.25631
0.24761
0.24007
0.22906
0.21744
0.20585
0.19312
0.17394
0.17453
0.17107
0.16584
0.15714
0.14906
0.14037
0.13047
0.12471
0.12005
0.11078
0.1015
0.090499
0.08238
0.07657
0.065565
0.057446
0.051679
0.045869
0.035441
0.020929
0.022666
0.019786
0.017483
0.012827
0.010524
0.008798
0.0035648
-0.0010469
-0.005703
-0.010315
-0.013816
-0.018428
-0.025393
-0.030049
-0.031775
-0.0335
-0.037535
-0.043923
-0.056704
-0.068863
-0.059578
-0.05087
-0.047978
-0.050281
-0.052584
-0.049693
-0.046757
-0.045596
-0.054293
-0.062989
-0.060675
-0.057206
-0.058354
-0.058349
-0.05892
-0.060646
-0.062949
-0.06352
-0.073371
-0.084998
-0.076867
-0.069313
-0.062914
-0.060023
-0.058285
-0.062897
-0.064046
-0.06
-0.056531
-0.058256
-0.059405
-0.062862
-0.066941
-0.066935
-0.067507
-0.06577
-0.064565
-0.070953
-0.081958
-0.088345
-0.073821
-0.066312
-0.062222
-0.059907
-0.057016
-0.056433
-0.058736
-0.059884
-0.059878
-0.059873
-0.058135
-0.054045
-0.058124
-0.06389
-0.063884
-0.062147
-0.059832
-0.059249
-0.066214
-0.070826
-0.058655
-0.05341
-0.052827
-0.052244
-0.051084
-0.050501
-0.046988
-0.042942
-0.041782
-0.04293
-0.042925
-0.044073
-0.047575
-0.047569
-0.048141
-0.045205
-0.043467
-0.048123
-0.061437
-0.068979
-0.055032
-0.047523
-0.04401
-0.04285
-0.043421
-0.043993
-0.041101
-0.041095
-0.038781
-0.036422
-0.03757
-0.038142
-0.039912
-0.043947
-0.046249
-0.04802
-0.049168
-0.050317
-0.063053
-0.070018
-0.05434
-0.045055
-0.0387
-0.037496
-0.038689
-0.040414
-0.04214
-0.04098
-0.041551
-0.040391
-0.039808
-0.039803
-0.04326
-0.045563
-0.044403
-0.04382
-0.0467
-0.04847
-0.057166
-0.065863
-0.057732
-0.051333
-0.046088
-0.042619
-0.043768
-0.046071
-0.046065
-0.049567
-0.05187
-0.05071
-0.046042
-0.039687
-0.040259
-0.041407
-0.046019
-0.052984
-0.058794
-0.057634
-0.065176
-0.072096
-0.061657
-0.052949
-0.048903
-0.048897
-0.04716
